263
676
353
334
322
313
278
310
328
369
374
373
337
315
294
290
318
674
305
285
289
278
263
276
303
343
359
362
334
312
292
319
343
330
676
314
317
300
259
265
326
346
375
383
353
324
315
346
361
368
321
676
312
338
320
275
296
326
353
379
395
397
355
341
359
405
390
394
591
342
328
282
266
265
287
348
365
376
347
317
305
316
359
375
366
337
287
677
272
303
296
250
276
305
320
356
360
365
326
310
15
14
82
452
126
212
3
3
4
79
193
224
237
268
321
356
405
453
469
484
670
432
398
370
340
344
401
438
634
479
676
318
236
217
213
261
303
317
301
266
245
265
294
326
333
308
221
639
295
284
286
248
254
266
323
336
351
327
296
286
309
329
344
672
308
314
277
248
251
299
330
358
364
327
308
299
318
347
365
311
675
308
301
295
251
262
274
310
343
355
345
315
295
279
336
348
347
674
280
307
297
268
268
312
349
292
295
271
271
308
306
337
83
6
563
167
196
251
290
335
369
388
368
346
350
393
403
426
400
368
282
669
325
321
274
268
306
335
364
377
362
322
302
290
324
340
362
278
670
300
293
296
261
271
290
316
558
488
675
339
265
240
240
267
297
296
248
248
273
290
325
322
292
283
263
305
311
601
263
258
218
235
267
307
336
341
332
292
284
300
351
371
371
304
672
311
307
289
265
270
315
321
349
360
341
315
315
350
275
283
278
411
254
244
17
4
0
71
137
146
194
259
297
336
363
363
333
336
350
402
668
361
305
300
303
333
377
398
388
359
353
368
389
387
352
342
332
347
363
336
669
319
310
268
261
264
315
327
341
313
299
290
315
340
346
331
290
295
477
277
301
275
239
248
255
279
294
342
348
309
303
302
312
343
514
430
404
365
333
352
352
326
296
271
264
296
302
305
263
251
669
226
257
265
246
242
283
312
338
345
318
202
226
226
257
303
283
602
3
27
99
101
175
259
308
344
351
337
343
389
410
420
424
379
376
629
391
313
309
291
306
348
371
389
384
348
332
347
362
378
360
340
322
322
667
314
268
286
294
268
292
297
310
337
355
360
327
312
314
337
359
363
323
657
264
284
256
243
256
314
330
354
340
320
304
307
331
352
365
322
305
403
294
299
261
256
265
302
340
346
326
308
311
337
347
343
323
298
308
298
669
289
498
450
427
324
337
299
290
275
437
35
2
3
23
55
144
206
223
230
249
288
336
356
364
357
332
337
319
672
315
299
327
332
322
322
335
379
387
381
360
350
353
365
382
355
324
313
276
672
260
250
243
278
311
346
341
313
311
335
358
373
362
335
320
324
355
354
362
305
515
297
265
251
266
295
346
356
359
323
302
305
321
345
346
324
328
313
341
293
667
299
277
294
306
305
295
307
327
349
347
316
303
302
339
345
356
317
640
614
441
400
301
224
0
8
32
117
136
130
198
242
275
297
284
282
298
330
319
669
558
519
460
410
368
339
348
367
348
320
292
280
564
291
269
252
222
223
266
287
321
342
330
307
302
325
333
348
342
298
294
261
676
249
293
290
270
294
325
349
376
368
352
321
315
334
360
375
353
335
638
283
241
244
275
293
316
312
298
321
343
375
378
351
348
371
397
381
375
251
591
295
268
263
292
324
352
355
335
306
277
282
204
222
248
250
293
199
557
4
69
85
172
226
282
317
333
344
374
404
434
445
419
415
415
445
604
381
393
373
338
312
306
345
369
385
383
375
347
344
377
386
374
344
266
671
301
298
571
496
449
390
351
325
249
675
277
302
295
283
325
349
315
318
317
280
285
317
326
343
328
309
458
291
286
317
311
277
280
305
339
356
359
325
312
320
341
374
355
347
275
675
301
302
263
254
278
329
348
376
356
332
321
313
344
15
15
388
79
177
214
3
0
65
158
207
237
270
311
354
398
431
460
464
432
671
401
386
374
337
325
352
391
413
426
408
378
368
378
392
416
393
363
289
665
296
317
284
278
312
350
371
374
341
316
305
322
331
354
331
312
461
326
290
293
280
255
246
299
327
344
346
326
314
320
350
466
449
439
427
394
362
342
362
376
387
360
332
310
288
297
243
569
252
262
239
223
227
247
280
311
340
358
351
313
306
326
361
323
99
160
152
155
257
215
152
5
3
39
131
174
178
236
278
320
362
398
405
405
361
666
354
375
383
380
364
384
404
423
431
397
376
354
362
397
387
368
509
352
285
280
305
310
310
306
326
355
373
378
346
332
325
347
365
364
304
669
293
298
264
242
256
320
324
351
352
323
307
331
348
357
336
319
258
671
277
303
271
256
275
313
325
350
361
326
306
309
340
370
355
345
357
517
281
535
491
435
393
378
355
377
329
673
172
163
226
244
251
3
3
4
14
47
133
204
237
241
234
632
256
311
323
289
290
366
396
423
434
440
389
341
253
365
390
311
671
325
320
299
293
335
373
394
379
327
324
330
383
404
368
385
392
618
326
306
305
256
249
311
326
369
386
369
331
319
304
342
311
672
285
241
269
308
340
342
278
285
284
326
328
373
359
324
246
670
302
312
288
290
276
279
330
346
356
345
320
338
339
359
332
669
310
335
326
287
315
354
675
674
672
556
383
341
6
258
4
4
87
185
308
363
429
562
676
527
356
375
324
270
258
217
232
262
258
269
247
207
232
227
269
536
249
208
205
192
220
297
309
328
321
293
290
324
357
384
366
354
305
673
285
306
279
281
328
362
401
437
439
404
394
369
401
427
427
349
672
375
384
403
425
429
405
322
329
267
268
327
332
373
386
331
258
430
256
163
163
187
244
315
339
311
304
286
307
313
334
324
308
318
672
196
210
220
245
311
108
50
131
153
179
227
275
314
335
353
373
600
319
358
358
329
333
365
383
415
422
404
377
365
375
395
393
374
557
357
291
292
300
337
358
503
479
458
672
332
283
275
274
256
251
253
272
294
315
302
270
267
303
303
326
640
263
245
217
210
221
286
303
326
340
323
310
327
334
359
357
329
607
289
288
308
303
292
287
311
326
347
350
329
318
331
353
375
356
314
676
269
300
292
259
269
317
332
348
324
312
313
359
358
355
222
206
548
252
272
248
254
299
339
355
379
374
346
345
362
378
397
370
342
669
294
299
293
303
326
350
341
330
347
362
370
358
334
325
345
348
360
334
501
298
266
261
264
295
338
351
320
311
324
344
361
353
322
319
328
348
277
668
393
403
413
396
358
337
330
353
339
350
334
467
299
268
274
298
299
288
292
311
340
346
324
305
306
321
357
358
327
666
271
290
272
256
270
328
345
331
310
301
314
362
349
348
227
204
669
226
239
234
264
325
342
360
347
338
343
368
391
388
376
344
357
614
370
298
307
298
328
344
369
367
340
323
316
340
353
365
336
317
258
671
272
307
298
262
282
311
320
350
358
340
314
316
351
347
359
288
493
263
306
301
280
278
307
316
354
362
344
320
304
320
334
350
670
291
310
289
263
266
309
325
345
358
332
320
326
344
473
426
408
417
405
375
350
311
275
255
257
581
159
181
188
190
201
184
136
159
152
210
241
279
261
667
313
346
356
346
348
383
407
434
458
445
439
420
434
667
414
361
360
378
396
425
418
393
388
404
418
411
375
308
669
277
279
248
247
282
310
334
344
329
325
377
375
393
342
667
339
325
299
301
323
342
353
343
312
311
337
335
342
296
669
302
290
264
256
268
303
312
331
326
301
292
300
339
330
331
449
287
249
268
278
273
249
269
282
306
326
344
322
301
453
417
386
288
643
240
178
189
198
219
246
269
298
314
427
672
340
322
296
299
318
342
340
321
306
308
333
338
328
326
303
308
288
673
261
246
250
276
305
333
321
305
309
336
346
341
316
315
351
352
355
263
671
296
281
305
299
374
321
303
308
324
339
355
352
334
319
318
348
350
330
671
284
301
272
267
290
328
340
354
345
327
320
329
350
360
355
347
319
331
342
574
270
268
296
311
314
318
312
338
352
359
344
313
330
361
352
357
245
657
195
183
215
251
304
319
321
313
316
340
356
368
356
339
339
357
332
672
317
316
298
277
286
328
349
369
363
344
328
328
340
357
368
351
342
356
368
371
349
324
315
317
345
367
334
321
395
299
256
256
273
282
301
312
303
308
324
348
349
330
320
323
341
312
674
303
289
299
275
276
307
322
343
354
339
320
321
327
339
311
672
290
304
289
257
282
327
338
351
340
317
315
331
362
351
456
292
294
300
280
272
230
215
242
275
287
271
277
307
329
352
332
669
298
316
295
293
321
361
378
370
345
338
348
375
400
367
347
263
669
293
309
282
265
293
318
338
349
353
328
315
317
332
348
349
305
669
260
289
259
236
264
310
321
350
352
319
308
322
346
353
388
368
355
336
337
350
363
339
315
303
325
312
332
281
652
292
291
294
268
281
306
321
343
348
330
317
315
334
371
358
344
635
287
256
251
284
305
294
286
296
340
331
340
226
247
271
247
253
211
665
256
308
310
296
313
335
357
378
379
358
343
350
370
373
362
336
301
671
270
303
279
273
306
339
346
344
322
318
332
349
358
344
324
310
321
606
312
276
272
271
302
333
351
334
325
325
347
361
340
324
347
332
348
282
663
295
285
302
297
297
298
316
340
354
333
320
313
327
334
356
335
308
667
262
277
261
250
389
396
372
377
377
355
430
297
295
263
253
250
296
302
288
282
319
318
338
221
251
241
231
179
663
281
288
305
307
311
328
354
371
377
352
345
343
368
392
370
354
460
300
312
313
286
271
271
322
336
359
357
335
320
321
341
356
370
338
323
459
277
285
296
282
248
256
310
325
346
352
324
313
322
344
353
348
329
308
581
300
304
295
260
269
306
330
344
343
316
315
329
347
356
334
319
309
667
284
268
283
300
306
313
308
319
346
352
335
318
317
341
348
351
675
363
322
329
321
302
217
233
214
231
257
278
306
314
376
367
333
324
356
365
377
361
334
316
329
340
356
339
313
398
291
283
265
262
283
313
336
334
308
310
328
346
350
327
307
313
310
672
312
313
309
281
284
316
332
354
365
341
327
328
363
354
348
315
546
288
304
282
259
282
326
334
356
349
331
320
331
368
357
357
264
633
291
266
321
324
322
338
354
371
363
322
315
318
349
342
329
279
675
303
302
290
268
399
359
332
347
358
365
303
208
215
214
201
462
262
247
265
296
327
359
357
332
334
397
398
401
378
340
322
306
672
264
288
311
338
348
372
358
318
304
316
485
343
352
367
384
346
307
378
405
401
385
325
246
207
190
204
232
442
237
222
253
271
288
287
290
316
359
378
396
392
362
378
369
398
328
669
343
338
275
287
313
338
352
383
363
321
306
332
345
362
354
324
522
322
251
249
261
288
296
281
249
252
271
313
318
284
279
337
307
314
279
268
196
198
191
225
259
296
332
352
336
320
328
352
376
386
366
359
332
348
369
597
295
272
297
333
348
383
453
510
364
353
365
478
341
311
327
284
220
669
283
317
254
241
281
330
376
337
302
335
337
328
320
343
368
306
273
368
323
486
401
386
356
338
318
331
385
361
331
243
667
299
304
301
260
262
284
328
346
354
348
275
271
264
304
292
352
307
504
277
279
276
318
331
332
280
257
296
318
387
337
316
200
205
219
189
364
254
265
309
313
272
290
301
354
343
377
462
369
374
341
316
304
318
551
386
310
294
335
349
345
296
290
312
334
361
364
325
299
300
344
354
640
326
273
259
302
322
349
365
337
304
276
300
338
329
351
351
300
582
284
292
294
307
295
267
283
286
326
330
312
291
306
338
339
361
280
551
248
274
291
309
338
330
297
297
416
673
330
304
282
322
351
332
294
298
297
315
297
291
265
275
285
668
174
161
170
239
265
279
264
279
286
306
329
357
356
315
308
290
622
314
333
341
331
319
333
336
373
381
340
326
313
334
356
368
344
555
322
274
258
263
319
310
327
312
298
302
343
355
360
325
315
304
327
294
670
306
289
311
330
314
311
305
326
340
324
294
292
300
323
352
345
461
324
287
291
292
276
280
297
336
339
335
319
313
336
361
370
325
314
356
366
289
289
320
289
264
274
307
489
425
404
409
424
383
279
224
174
658
184
246
256
246
441
441
417
361
348
539
335
265
258
264
289
305
302
284
290
305
321
331
321
297
321
304
316
285
670
285
271
292
302
303
300
305
322
342
345
318
306
321
342
346
325
281
673
275
302
275
259
275
313
328
344
330
310
316
331
347
347
338
316
322
270
672
263
267
266
284
322
341
327
312
314
326
347
354
342
316
319
322
339
467
283
273
267
273
290
312
310
301
312
325
327
298
293
332
342
338
214
248
317
226
247
254
244
267
303
338
344
354
332
326
341
370
399
368
358
280
666
304
314
292
293
325
350
358
346
320
316
335
366
388
368
343
322
323
332
346
347
308
295
299
333
331
303
264
674
263
283
288
258
251
283
301
330
341
331
303
296
310
348
345
340
285
415
296
293
294
265
266
300
318
343
349
323
312
324
338
351
335
315
309
538
309
272
284
294
322
332
319
317
326
349
310
295
302
322
352
336
670
162
175
223
232
236
269
296
319
343
357
350
341
341
373
363
373
304
660
320
322
314
293
301
324
332
358
357
328
326
327
349
371
347
327
257
571
263
272
292
299
287
294
304
322
336
329
308
309
324
344
357
320
315
261
623
258
262
281
418
399
394
412
375
356
334
493
283
267
278
295
289
282
287
308
316
332
316
305
306
326
358
337
324
245
674
292
295
287
271
283
309
321
338
349
322
296
307
323
347
337
300
299
273
159
166
211
219
212
252
293
310
337
349
336
329
348
358
395
378
350
303
670
302
317
300
306
325
354
364
353
333
332
348
366
369
371
327
327
282
670
267
266
275
289
325
344
324
312
318
338
345
348
325
316
328
336
349
620
278
262
272
290
296
312
313
300
317
344
347
334
322
316
331
353
345
334
370
351
261
260
271
289
295
304
301
309
416
410
407
346
675
319
310
299
284
287
304
317
285
278
285
302
338
343
306
173
141
622
219
250
273
281
285
300
322
344
369
363
350
342
353
365
388
357
346
482
302
293
312
317
294
282
316
332
350
354
343
325
326
338
354
350
341
322
326
519
291
283
294
305
285
285
306
313
341
350
338
318
314
333
351
349
309
301
282
668
266
265
265
266
295
356
377
354
343
367
396
381
387
372
334
312
283
670
246
291
277
280
284
341
319
328
332
313
295
342
355
336
346
320
674
378
348
364
374
318
241
248
217
223
262
286
318
338
395
391
342
334
356
380
407
676
609
675
676
674
406
29
252
7
7
7
36
102
116
181
228
259
297
311
309
300
323
340
350
332
319
635
269
288
296
324
348
384
385
359
323
329
344
355
347
317
305
327
343
360
478
281
258
273
302
305
304
308
332
347
357
346
324
286
285
286
348
402
393
392
361
499
327
255
257
293
340
330
339
328
317
314
319
361
358
337
302
309
572
298
287
289
294
303
189
231
254
247
219
273
307
297
335
310
667
333
367
332
308
310
344
374
378
375
326
324
340
382
354
351
269
666
300
292
307
294
427
406
368
342
564
333
261
251
232
248
290
303
311
284
287
291
315
338
343
312
307
298
576
310
248
244
249
292
321
348
329
292
295
292
341
333
326
298
285
280
627
249
225
248
258
269
273
262
274
298
334
344
335
325
334
370
356
363
263
648
335
345
331
291
279
343
382
389
388
368
331
318
222
209
194
667
240
315
323
316
323
331
356
377
384
357
359
367
395
405
381
667
313
310
302
304
324
344
345
327
329
348
352
338
333
309
327
266
663
252
253
241
263
294
322
306
280
286
309
320
361
343
330
459
299
304
317
266
381
356
321
306
253
674
247
284
278
258
279
300
331
346
347
312
311
302
327
315
674
310
296
311
305
304
308
331
351
358
334
325
311
326
326
676
290
292
301
251
254
303
319
341
323
303
163
175
123
669
198
255
261
283
283
269
303
316
343
358
369
331
310
389
286
277
264
266
318
321
306
305
300
309
336
362
378
280
322
416
277
307
299
264
243
262
308
332
378
382
325
312
279
283
336
667
299
283
326
345
355
310
299
382
299
265
276
333
301
278
670
293
285
309
306
264
268
300
339
363
393
378
338
274
254
670
262
307
420
430
373
359
295
300
429
221
293
272
298
294
258
273
319
337
385
406
399
319
261
244
231
662
197
303
283
320
332
330
286
288
298
376
354
370
360
311
317
244
588
240
251
267
301
346
375
381
336
326
293
324
350
401
402
380
234
215
670
185
308
308
339
352
305
318
368
376
398
379
327
312
303
407
357
508
670
333
273
271
256
199
217
284
314
375
394
441
456
437
383
377
405
406
465
436
671
319
330
319
349
373
413
417
394
347
306
297
321
349
369
377
325
286
225
671
269
307
293
248
255
223
248
296
323
330
290
280
402
365
328
309
324
380
396
408
373
336
399
446
630
672
521
383
385
670
321
279
264
231
223
212
213
272
298
327
321
268
265
250
277
296
612
300
317
194
291
305
196
283
399
224
247
308
294
364
266
236
540
212
232
274
320
339
351
313
265
249
262
311
299
310
323
267
301
491
392
392
443
448
388
354
403
418
462
480
490
455
400
375
363
381
388
672
336
322
269
254
297
316
330
320
304
289
326
310
291
300
286
508
317
285
295
326
352
370
354
329
303
298
322
348
332
307
233
491
238
274
272
235
229
253
286
318
329
330
317
265
263
273
310
347
349
323
303
313
333
364
347
328
238
639
293
296
280
261
282
315
333
355
359
332
318
329
365
356
366
268
600
310
280
272
269
313
344
356
357
325
320
327
345
364
361
330
315
326
629
324
312
290
272
277
312
340
364
364
336
326
340
370
379
316
317
301
650
292
268
249
261
272
273
283
312
339
350
343
322
330
352
366
352
307
671
283
305
294
278
294
348
361
364
342
332
346
361
382
367
354
334
334
669
298
282
305
300
287
298
301
323
336
354
339
321
316
328
358
346
339
243
629
292
298
273
261
372
362
373
362
372
311
672
313
317
300
277
281
312
331
339
325
306
305
317
347
354
308
304
372
260
274
261
263
279
295
314
310
304
315
334
353
353
326
320
326
347
612
288
280
266
227
240
294
316
325
312
327
345
373
380
380
368
355
377
326
668
331
338
327
296
312
349
361
381
379
352
349
367
385
404
382
373
464
346
349
338
364
384
395
394
379
365
377
387
384
371
343
329
337
347
351
550
298
294
269
256
251
274
310
320
317
294
301
323
331
337
315
306
311
333
637
298
294
274
268
280
323
349
354
346
337
335
358
672
422
390
375
387
410
421
412
389
376
369
381
382
315
320
372
356
314
319
318
245
241
251
294
308
327
321
285
285
297
333
314
316
228
614
260
268
236
231
256
291
297
309
297
276
281
300
324
323
307
241
670
254
264
268
245
252
280
299
328
353
354
334
338
344
364
368
353
588
325
318
299
288
300
323
341
347
331
314
312
338
351
353
314
313
364
352
293
303
301
280
274
297
332
343
344
322
312
326
342
370
351
333
251
656
294
299
272
261
283
312
330
335
313
308
318
396
391
349
306
674
266
242
231
219
236
283
304
380
395
330
675
324
321
309
291
301
328
340
353
349
327
318
320
351
372
343
330
266
561
267
282
303
313
313
308
310
334
349
332
311
304
314
331
349
332
309
516
308
248
256
276
288
300
314
305
311
341
352
345
320
313
325
340
351
334
303
673
265
303
292
269
278
320
341
359
357
336
335
339
363
374
355
345
334
341
559
320
297
313
328
334
326
325
344
358
369
353
321
332
365
332
333
227
485
192
239
258
295
313
343
342
334
366
390
401
404
378
370
369
390
669
345
339
326
343
365
406
419
407
400
410
425
445
454
443
379
357
366
378
379
361
336
325
341
359
324
312
242
498
226
248
260
261
243
252
271
288
296
287
284
302
291
306
251
671
253
233
237
246
271
265
248
263
285
295
287
283
265
286
294
420
257
235
250
265
279
300
291
291
312
333
339
329
326
308
325
295
665
296
293
288
290
294
314
352
336
316
261
272
262
294
272
559
252
253
268
289
302
303
292
302
325
332
325
309
309
321
339
519
274
287
276
261
258
288
322
331
314
309
313
332
344
351
311
306
262
670
256
276
264
256
292
308
325
334
325
309
318
343
344
339
316
313
318
365
368
362
337
321
326
340
352
320
307
402
270
285
265
260
275
299
311
307
291
292
313
323
325
307
292
297
284
671
276
269
285
290
282
293
300
324
340
321
304
321
313
338
280
668
220
227
229
249
299
324
325
311
308
327
343
352
344
318
321
274
671
274
273
285
301
320
329
317
323
335
358
358
341
342
324
341
301
653
303
298
310
295
289
303
323
336
326
303
304
316
327
333
298
666
271
291
282
261
263
296
313
329
334
311
304
310
328
339
334
636
266
270
265
273
286
321
327
309
311
326
338
347
341
309
318
290
322
367
374
369
343
328
342
326
336
285
595
264
276
270
295
317
322
324
301
297
275
277
279
259
564
249
263
284
293
286
290
299
315
332
344
329
328
317
320
303
671
293
291
294
265
270
300
315
331
340
324
309
320
327
330
280
669
288
293
291
266
275
297
314
331
337
324
310
309
335
338
335
670
284
304
287
274
290
316
336
337
322
310
314
334
349
334
310
433
287
294
299
277
271
283
306
323
330
306
297
311
321
338
337
308
525
305
255
260
263
272
302
324
319
307
309
397
386
388
338
336
358
371
231
204
226
241
257
371
390
374
357
507
324
291
301
314
305
286
306
313
334
349
337
305
308
331
336
331
284
645
273
292
273
268
281
311
324
329
312
297
303
329
345
329
310
451
288
255
268
283
275
257
283
301
323
332
335
308
303
331
321
337
265
663
282
269
282
288
289
296
311
328
348
342
321
317
333
344
350
668
295
303
281
279
298
332
346
336
319
306
323
340
356
328
316
422
284
268
259
265
284
314
320
292
246
250
274
291
304
291
277
667
248
268
261
262
286
330
337
323
313
321
334
347
347
318
305
670
271
262
269
282
292
321
314
383
645
318
300
311
319
313
302
319
334
346
345
324
309
331
335
338
291
671
288
304
298
272
281
306
320
339
338
316
308
326
336
341
286
674
294
291
295
269
276
308
321
339
351
330
315
318
335
349
325
676
279
307
300
272
274
304
327
342
355
349
333
324
352
353
265
660
305
307
304
243
243
269
299
322
337
338
319
318
333
344
345
603
293
296
323
327
319
306
315
336
355
349
330
325
341
329
349
281
572
267
270
281
288
305
313
302
315
334
349
346
316
317
326
336
666
287
282
290
265
254
295
311
330
349
346
318
320
304
340
332
350
352
330
341
354
364
348
332
342
322
336
337
533
288
311
299
290
297
321
334
345
334
308
320
331
351
329
287
453
310
267
260
292
303
261
278
303
304
328
324
305
309
323
288
220
517
244
219
226
236
294
324
330
318
287
294
310
325
348
346
319
620
275
277
301
324
331
325
310
334
347
362
357
337
339
330
356
370
505
312
283
299
315
341
366
375
363
356
359
378
380
353
333
332
667
303
287
301
300
291
288
290
304
331
337
318
302
297
293
315
408
244
229
244
265
270
251
261
293
324
341
342
321
298
313
296
318
340
362
345
329
317
320
344
340
335
299
312
368
282
296
277
277
244
255
251
276
273
259
262
294
317
341
340
268
667
282
291
288
277
291
611
669
669
303
449
346
292
252
107
316
140
236
232
415
463
547
667
111
54
69
101
172
172
187
191
667
225
305
327
305
305
335
359
388
384
380
340
362
346
364
341
665
312
325
297
280
305
330
355
355
338
319
316
322
340
341
295
668
263
282
272
245
250
299
311
330
336
308
306
324
352
334
320
235
669
285
266
282
284
291
366
368
391
385
362
333
339
268
266
349
263
232
330
346
362
369
347
324
296
257
672
234
284
263
251
261
293
308
328
341
322
304
300
344
338
336
284
674
287
280
296
275
261
299
308
337
343
322
300
296
324
343
483
675
675
675
321
3
2
1
7
62
104
181
199
195
197
236
273
303
300
296
247
659
285
324
317
296
298
322
348
363
361
332
319
323
349
361
361
260
663
299
281
299
294
292
284
311
325
354
357
318
319
303
339
305
675
284
270
239
241
259
266
257
293
310
339
344
312
292
314
328
353
659
308
309
278
263
291
337
356
376
363
351
359
368
351
360
337
308
336
323
344
367
356
322
307
303
311
327
306
672
265
280
283
246
249
281
308
329
330
317
305
298
335
330
338
312
435
278
284
293
280
261
283
301
339
350
340
310
312
317
352
355
319
675
291
308
302
288
267
296
318
357
359
349
335
328
358
362
363
294
675
304
328
320
319
316
331
342
336
315
298
318
301
287
267
420
282
253
275
286
282
264
287
321
333
339
328
306
302
316
352
366
350
610
272
259
278
304
308
311
286
302
319
335
369
358
337
303
304
313
333
645
300
300
291
265
264
305
325
348
352
329
312
322
340
362
324
331
296
304
338
342
353
337
304
294
314
334
354
332
319
241
675
285
276
286
258
261
289
307
329
339
318
308
306
330
346
356
327
308
344
370
274
257
283
292
300
289
316
335
344
339
309
314
288
297
325
304
298
236
507
268
311
309
281
286
315
342
362
367
336
325
327
355
364
357
321
318
440
279
311
307
277
271
293
325
345
351
320
308
313
341
351
336
304
300
270
669
247
260
253
260
302
332
340
336
315
302
313
333
353
349
327
253
670
289
298
284
263
276
314
330
341
337
304
291
332
384
344
313
344
634
281
297
370
349
356
346
346
307
666
298
302
295
270
266
306
314
340
338
282
297
308
326
291
672
234
210
229
264
290
297
282
293
314
336
349
339
304
302
266
670
261
257
263
293
316
330
312
314
333
344
356
348
325
316
312
667
292
281
301
316
309
301
302
328
338
348
317
310
318
332
345
534
287
291
281
267
256
276
311
335
339
322
306
296
313
354
336
332
228
665
265
251
268
301
335
335
320
301
314
337
347
338
311
305
310
312
669
284
285
298
285
271
297
320
344
350
340
316
322
332
423
406
390
344
654
284
231
231
262
285
345
373
362
328
631
257
254
256
287
309
320
309
277
283
320
336
344
313
295
293
306
327
294
673
277
265
291
297
292
282
300
323
343
341
329
303
311
339
368
353
334
266
671
308
315
303
284
309
330
352
364
333
314
308
336
366
386
348
343
333
449
267
294
311
310
277
275
301
332
339
343
301
294
306
350
338
343
250
455
246
284
290
272
273
292
317
343
345
332
313
311
343
331
314
245
507
263
278
220
224
229
256
292
308
330
317
298
310
322
361
361
346
290
565
289
315
312
293
288
316
336
357
356
329
317
309
352
343
332
336
313
321
327
355
345
322
308
314
323
330
274
674
272
256
274
288
279
279
296
326
328
330
308
300
311
330
338
292
673
288
272
289
294
272
288
294
319
338
351
335
318
321
353
358
344
299
613
266
272
264
301
331
343
331
314
316
328
343
340
320
299
311
335
533
252
266
287
297
297
282
290
286
288
284
263
263
296
313
300
670
281
290
292
264
267
296
319
344
357
351
327
312
311
347
351
346
316
444
273
280
293
274
267
292
308
341
350
346
322
313
338
343
365
338
323
380
323
267
274
293
303
284
278
293
320
347
350
672
283
303
284
267
298
336
355
358
309
307
301
306
337
349
307
299
339
294
236
236
275
295
285
274
274
304
331
350
323
297
294
312
352
350
339
228
519
232
246
292
306
292
278
309
317
340
302
297
272
253
286
301
329
570
264
241
264
285
310
318
295
281
287
328
327
332
300
313
295
319
311
670
290
292
285
251
251
290
309
338
334
304
288
284
309
343
343
337
236
626
303
299
292
261
279
318
328
358
365
309
307
296
323
351
354
338
333
462
289
309
325
310
281
284
316
339
362
367
308
307
310
357
474
422
524
285
340
287
270
268
283
332
325
320
276
491
275
251
248
266
305
325
317
303
313
338
364
365
332
268
205
670
257
242
266
297
325
325
316
322
336
376
364
339
337
332
349
327
666
306
318
292
277
295
332
344
370
366
335
333
339
366
372
369
286
670
307
306
278
281
282
320
332
342
315
296
304
326
368
360
341
258
668
283
292
280
260
258
307
312
348
334
313
325
377
383
358
343
311
519
267
250
240
236
254
292
338
340
334
313
314
335
354
353
318
321
307
285
669
261
266
277
304
349
417
430
376
355
366
374
380
301
313
272
330
311
324
341
351
338
308
310
328
359
353
331
395
281
289
272
257
261
289
317
329
313
299
305
329
350
346
309
306
313
332
672
299
295
294
263
258
293
314
341
344
322
309
316
339
351
362
320
312
266
576
274
297
297
263
274
311
323
350
358
336
323
320
338
351
377
349
335
333
530
292
269
275
294
321
332
315
301
310
322
347
347
324
328
315
336
303
669
306
311
300
274
304
332
346
338
327
314
324
302
309
304
242
670
282
296
298
266
279
304
325
351
365
348
329
326
352
351
356
275
666
305
311
296
275
284
314
338
364
665
335
323
289
286
295
333
350
338
307
298
312
333
366
332
318
279
576
279
302
302
269
270
293
316
339
349
320
307
313
349
349
352
384
389
279
262
282
299
306
316
303
310
328
351
360
347
319
321
328
358
431
331
301
309
305
269
258
296
330
350
358
343
325
324
346
347
321
272
670
277
267
230
224
259
284
314
334
335
314
307
323
353
353
338
389
327
270
281
285
309
315
331
326
312
325
352
358
344
324
334
333
354
302
670
309
307
301
270
280
303
317
352
358
336
322
316
339
353
352
334
366
347
255
245
257
285
368
402
390
380
338
330
400
317
273
280
306
309
282
288
292
308
331
340
318
304
300
333
326
344
283
670
307
310
300
275
279
315
333
356
361
320
315
317
333
357
355
297
284
253
236
288
320
343
309
312
276
272
277
296
325
332
308
666
259
306
301
251
250
298
312
346
350
333
302
292
316
342
340
339
398
314
263
256
268
290
307
324
324
307
314
337
344
344
322
335
326
354
295
667
288
272
282
296
296
290
304
339
337
332
309
301
298
334
345
337
638
265
250
254
283
294
315
301
300
319
342
363
341
321
320
340
338
354
358
336
355
362
372
352
331
303
321
328
348
589
256
239
250
277
298
293
279
282
327
331
328
250
265
266
260
298
254
670
258
241
252
291
317
329
307
301
321
338
355
355
321
309
322
348
348
669
285
305
295
274
278
323
340
357
334
322
309
330
350
347
330
303
301
385
264
262
250
275
283
304
296
286
289
309
336
338
321
299
293
320
327
340
263
487
238
281
298
272
258
267
290
307
338
334
324
294
323
327
378
366
363
276
564
244
243
260
270
314
323
325
300
296
331
350
343
304
346
348
363
633
270
251
192
195
208
264
371
355
507
300
291
258
253
267
294
322
342
310
287
286
303
326
319
309
288
295
542
327
244
243
270
284
299
297
285
288
321
325
327
296
287
297
306
327
276
583
245
265
252
268
309
349
361
344
318
317
315
345
359
349
319
275
669
262
298
288
275
289
324
345
336
310
298
304
350
357
342
318
391
259
295
285
254
249
272
318
338
343
318
303
297
315
352
354
330
264
675
291
285
267
265
309
311
346
311
297
275
272
309
311
342
326
553
253
289
310
308
292
304
324
332
366
359
327
325
351
351
366
301
669
295
321
304
291
335
367
362
672
256
294
292
247
247
261
302
328
353
345
328
294
296
302
343
305
673
293
283
300
289
261
268
296
326
356
354
317
314
291
327
335
360
671
274
308
295
262
260
301
329
356
363
329
308
304
320
369
359
354
276
613
270
295
271
262
276
333
340
346
313
311
304
347
352
318
273
672
241
243
213
200
219
284
296
336
344
331
298
294
322
337
364
355
317
668
257
307
304
264
263
306
323
345
361
338
313
304
323
346
378
359
344
288
502
288
313
289
263
272
322
339
361
346
316
297
301
330
370
359
338
295
562
245
358
345
331
320
342
349
356
353
540
289
241
262
284
319
337
340
306
305
305
333
347
323
308
292
301
273
675
270
264
286
302
310
322
311
313
341
358
345
332
304
325
341
394
384
258
296
266
249
202
220
260
285
313
325
313
300
287
306
329
346
661
282
303
285
257
270
307
338
361
352
331
313
313
334
367
349
336
296
549
280
295
268
253
269
308
316
345
353
322
317
313
333
350
350
327
406
300
303
291
308
326
343
348
322
337
372
391
396
364
368
342
379
381
382
366
548
317
280
265
261
291
319
342
321
299
290
304
337
327
275
270
289
316
338
342
322
293
300
327
330
342
312
299
527
267
232
238
275
295
338
286
293
287
273
274
305
267
329
354
334
668
267
305
295
257
260
299
325
357
360
352
320
312
328
370
360
360
403
356
278
278
280
317
333
330
312
302
313
334
361
347
332
317
311
293
667
284
267
293
307
315
303
296
313
327
353
345
325
313
308
327
303
660
294
288
301
287
287
302
322
347
357
328
322
311
333
354
356
577
278
272
292
302
285
269
303
319
334
361
351
330
317
330
344
362
315
331
307
334
346
347
310
299
260
281
317
581
280
285
307
321
303
307
288
295
315
334
348
330
296
313
307
339
673
292
271
299
296
267
272
282
319
337
355
345
320
315
316
353
364
362
253
672
266
243
270
284
288
275
295
322
354
354
331
321
333
343
368
362
330
465
311
316
327
308
286
286
315
354
361
350
320
302
311
322
355
355
315
267
676
294
298
289
258
252
290
312
336
338
312
303
303
317
350
351
325
232
669
270
282
297
296
287
270
279
296
313
296
281
287
337
328
352
454
284
258
277
309
315
316
303
317
324
356
367
343
334
320
331
346
347
288
667
307
335
365
355
316
318
313
336
298
595
251
259
241
239
263
295
314
314
290
276
293
312
343
339
296
296
224
633
243
274
273
248
282
317
336
347
329
308
315
337
361
377
345
326
313
571
311
301
273
275
308
331
346
326
306
307
314
340
346
333
301
310
408
246
264
251
253
275
309
306
290
315
338
345
346
259
271
257
297
356
286
260
293
297
268
273
295
329
355
355
344
325
334
353
359
345
317
253
670
296
292
274
253
266
299
312
335
348
322
302
301
313
339
347
321
469
303
260
275
292
278
258
264
290
318
337
329
299
290
273
314
312
297
300
321
331
346
335
311
297
304
345
336
340
410
267
283
281
254
243
252
309
323
336
313
292
298
334
346
340
326
304
305
283
667
278
264
278
303
314
284
295
323
339
360
318
309
250
244
244
662
238
245
246
266
296
338
344
320
303
301
329
340
362
339
315
243
669
268
299
280
253
272
297
313
338
349
328
307
292
320
332
345
416
303
294
268
257
250
267
308
330
340
314
300
300
327
329
352
334
306
582
301
306
301
278
268
301
329
342
347
321
309
320
364
350
349
288
605
270
276
268
284
313
344
350
319
672
287
278
279
321
358
374
348
327
300
303
341
343
343
257
670
271
290
287
276
282
284
309
316
303
287
295
332
342
358
494
313
267
275
289
308
330
330
310
320
342
355
360
328
314
305
334
307
668
307
311
305
261
256
295
308
334
345
338
294
294
330
330
354
307
540
251
274
285
297
294
293
301
338
349
343
312
304
301
330
353
325
667
290
300
285
254
258
302
333
352
351
318
310
319
351
368
342
320
273
647
260
278
267
283
318
344
349
323
312
318
348
361
363
316
313
268
668
322
312
329
346
347
293
264
271
302
325
329
289
292
323
356
349
321
308
316
342
353
353
312
302
272
673
246
309
311
274
281
295
318
358
362
329
310
302
325
330
361
310
637
288
302
272
283
291
312
339
336
337
320
314
322
353
359
329
666
272
294
273
243
235
263
289
324
334
321
289
288
298
328
346
299
676
295
285
300
298
277
287
311
329
349
330
316
285
314
317
356
331
672
294
305
290
267
273
295
322
337
336
284
287
320
326
345
266
596
231
264
257
228
243
283
318
328
332
313
290
307
338
348
336
253
669
284
280
280
273
263
300
324
340
359
342
314
304
294
307
276
277
300
338
357
349
327
312
310
327
353
358
322
311
270
558
271
296
290
263
254
274
293
324
344
328
295
287
294
324
330
335
432
253
284
306
288
267
257
285
317
336
359
329
320
299
304
327
342
344
304
400
235
289
280
253
245
239
281
296
328
335
305
291
299
341
345
297
290
245
664
195
255
266
262
258
281
321
351
351
326
315
308
334
358
346
306
640
254
277
258
253
276
314
338
344
330
304
301
319
336
341
314
297
416
254
284
294
290
243
264
307
323
357
370
355
322
301
293
354
328
352
446
278
249
249
364
375
370
362
312
308
313
629
295
299
277
239
253
278
303
326
338
313
295
275
307
309
343
293
662
298
291
301
249
251
280
305
328
358
351
330
296
302
322
343
361
237
290
292
237
239
258
279
280
306
300
259
270
308
331
344
347
261
669
521
307
309
284
297
275
309
401
378
353
410
504
347
267
251
502
239
189
195
255
290
325
312
308
285
530
672
197
127
135
68
602
139
216
219
208
250
298
317
346
358
344
332
338
351
377
322
668
312
321
294
276
280
320
335
365
356
323
317
329
341
358
292
670
303
304
293
267
268
349
335
673
316
298
311
315
292
301
311
338
362
349
329
300
303
341
532
275
299
304
285
229
221
260
279
313
332
333
299
315
319
342
301
669
300
288
303
296
273
298
316
346
373
369
339
326
337
332
349
294
649
311
311
281
262
279
329
330
361
361
330
311
313
340
366
366
287
669
304
302
294
259
272
310
312
336
328
291
296
317
347
370
348
335
414
280
298
264
256
264
291
313
347
344
307
307
323
352
366
361
321
308
277
671
242
254
245
263
299
326
343
317
304
308
319
349
353
350
346
331
672
319
284
262
248
231
249
349
361
379
328
674
311
309
298
268
275
300
320
351
348
315
304
305
314
355
353
336
413
271
304
285
257
252
273
312
341
351
322
311
307
334
351
374
347
317
245
555
252
271
293
296
299
296
306
335
349
348
317
302
343
338
356
293
672
304
294
299
262
268
313
321
352
358
334
318
311
340
355
363
298
670
305
312
278
263
277
313
328
356
344
327
292
294
327
340
351
471
315
264
297
311
298
294
302
325
335
316
281
273
274
320
332
303
669
283
288
289
272
266
292
317
341
354
351
322
315
312
342
357
344
661
269
300
268
351
340
347
378
373
338
419
269
297
279
259
247
270
298
330
337
315
304
295
313
345
366
328
311
245
629
256
287
278
252
267
300
331
344
345
313
309
328
342
356
335
315
246
676
289
294
292
258
265
304
320
344
345
323
305
314
344
358
350
335
313
251
670
263
301
283
267
322
325
349
346
329
310
329
309
311
303
274
281
275
665
288
275
300
308
303
304
306
331
357
354
335
325
320
323
364
359
333
425
269
275
293
293
254
256
280
318
338
345
325
305
304
319
342
330
324
287
288
437
257
294
294
279
261
264
342
331
358
393
310
674
285
299
279
248
258
269
304
317
324
300
285
283
304
350
328
330
257
628
262
281
254
244
276
321
328
347
329
306
320
338
337
340
329
314
372
359
289
292
285
259
275
324
339
356
348
279
276
267
298
333
332
319
235
606
277
281
244
251
287
325
332
350
332
304
318
335
354
364
334
321
254
667
279
309
282
267
275
302
329
346
347
307
304
312
349
342
347
260
668
301
307
289
277
276
314
334
355
352
318
306
319
332
353
343
315
597
271
245
271
286
296
302
293
302
332
352
337
306
300
312
346
352
334
472
298
383
385
355
334
328
348
364
348
286
672
293
298
288
255
260
291
329
342
333
304
314
305
333
309
293
356
249
250
240
241
264
294
311
327
305
304
339
346
366
348
325
329
337
353
283
668
281
270
278
300
313
301
301
331
351
360
352
335
311
324
344
354
309
667
302
305
301
272
271
299
317
340
336
334
304
307
311
349
349
331
475
312
268
283
296
291
267
280
298
315
337
349
326
303
298
317
347
349
311
670
248
279
267
240
247
286
311
333
346
322
304
294
313
324
354
334
319
323
320
336
322
286
277
287
336
301
308
296
329
292
312
316
300
279
276
314
350
359
343
323
322
341
359
355
333
320
315
600
320
280
262
249
254
294
329
333
323
300
298
322
340
340
326
293
294
365
297
252
267
284
285
262
263
298
330
342
345
320
303
300
322
357
348
344
312
485
282
250
259
275
313
336
324
296
301
319
339
352
328
298
296
303
598
305
284
264
260
304
315
349
333
320
302
318
340
338
332
320
299
672
236
235
248
265
323
336
331
267
251
265
284
304
323
316
254
672
279
285
295
269
282
309
310
344
352
325
304
302
340
325
344
302
615
275
267
252
329
358
359
331
675
302
298
281
254
266
292
310
333
342
322
304
301
327
318
338
266
672
258
238
255
282
313
322
304
296
289
318
334
316
310
285
299
263
672
246
246
250
280
313
328
308
289
292
321
336
331
317
299
307
287
672
302
290
324
324
308
293
303
335
349
340
312
339
325
347
270
670
280
208
210
245
292
317
318
294
289
318
341
345
338
302
299
272
667
248
244
244
277
306
341
331
300
285
295
323
345
350
336
288
278
278
666
275
245
266
293
327
351
315
287
300
308
337
342
339
295
293
248
666
278
281
248
265
384
355
359
348
339
310
221
240
217
284
289
315
304
263
252
261
278
312
330
327
269
269
305
423
259
321
326
291
309
305
327
338
335
314
310
320
353
361
325
334
540
298
267
295
322
344
336
313
289
300
317
347
381
338
323
306
508
300
276
295
317
340
342
323
332
353
365
374
368
346
320
341
441
326
316
306
315
333
339
313
293
294
317
325
310
298
301
273
290
327
489
241
286
267
255
260
252
275
286
286
280
298
312
335
313
298
330
392
276
289
299
304
357
341
362
346
340
318
322
345
336
306
285
289
580
312
293
274
321
334
342
349
551
306
311
283
287
317
326
328
308
304
297
319
325
298
288
640
265
256
245
280
311
329
314
295
307
319
339
349
300
284
306
669
307
291
302
339
348
334
306
317
327
335
343
317
327
304
304
328
659
351
366
336
325
317
344
357
393
390
324
317
298
312
318
350
382
462
253
220
272
304
321
306
265
251
238
260
302
347
350
334
276
260
598
223
257
266
286
339
303
376
342
360
345
354
300
329
314
333
337
666
335
332
289
260
287
335
337
383
414
371
357
300
316
329
394
668
296
331
275
245
228
248
299
318
327
257
267
317
346
360
350
305
291
307
340
377
412
365
369
324
321
260
529
323
331
289
313
341
364
362
330
306
287
289
373
329
344
339
495
322
250
247
307
338
356
363
314
302
287
306
344
353
363
330
548
312
323
288
273
256
288
324
326
354
334
291
290
248
279
293
618
292
311
277
259
253
286
325
353
356
325
321
267
276
311
669
316
311
345
350
328
343
297
307
333
352
343
284
313
581
341
219
232
146
156
210
269
340
302
325
373
371
337
304
307
411
246
322
338
287
292
299
360
362
412
409
364
345
324
348
368
393
357
410
397
336
312
297
307
332
319
674
298
279
300
283
265
277
301
337
350
366
318
308
301
320
312
672
323
331
286
277
281
352
364
395
411
379
350
336
346
373
351
675
390
398
353
333
345
394
413
440
443
388
364
346
353
374
354
675
358
341
292
275
272
322
326
370
370
282
322
298
242
672
278
257
233
216
225
266
301
329
344
338
301
285
270
574
304
309
276
244
245
305
334
365
368
328
323
291
305
296
668
310
301
306
285
299
288
297
337
355
380
345
325
558
304
309
278
247
230
266
309
324
360
364
320
307
252
669
402
349
320
315
332
529
263
249
274
292
333
351
326
287
296
347
343
375
530
296
330
317
275
249
272
318
349
376
383
361
312
301
226
560
278
339
340
336
311
291
301
361
377
328
316
253
505
235
277
276
228
245
273
294
330
358
376
372
316
291
671
254
313
305
246
272
302
340
354
384
381
339
328
309
349
520
254
287
309
319
278
267
284
306
333
364
379
341
314
293
310
333
321
670
312
319
273
247
250
313
322
363
383
354
316
310
314
357
365
316
667
314
330
302
271
265
295
323
349
375
362
328
311
320
332
363
569
259
412
411
359
327
307
329
362
360
314
672
299
311
275
226
216
264
321
321
352
320
294
284
307
289
304
283
663
279
309
292
253
249
281
313
342
364
374
318
320
301
329
323
342
467
315
216
242
237
282
302
354
384
367
329
310
321
353
362
379
342
271
670
311
323
290
253
252
291
295
345
346
351
305
285
292
336
362
319
670
315
309
308
251
252
303
329
356
373
378
336
320
312
354
358
332
670
329
333
276
254
256
314
331
360
369
358
313
301
322
329
360
635
322
218
218
212
238
312
421
388
396
387
329
331
292
250
287
557
324
406
391
341
330
326
363
409
396
339
674
328
344
304
282
261
307
325
360
365
343
311
300
316
346
359
304
674
299
275
297
293
263
275
304
339
357
370
364
334
320
339
348
380
464
428
333
320
336
289
242
290
340
331
324
362
353
317
276
262
279
314
289
669
272
261
298
308
288
286
282
346
340
383
370
335
321
331
364
373
674
311
328
285
266
241
296
326
348
376
372
326
320
318
372
363
367
270
444
281
186
194
184
215
287
297
327
337
325
299
317
361
380
414
398
368
301
540
301
377
362
350
301
311
293
335
373
383
674
263
326
313
251
269
249
292
303
353
357
344
305
269
270
317
295
673
278
237
249
293
338
416
425
446
399
368
343
333
354
371
438
393
390
672
218
247
237
207
227
276
285
334
341
329
294
288
299
329
338
329
241
619
301
306
290
268
277
328
365
387
391
365
335
309
322
355
514
303
317
283
283
261
276
316
310
270
278
286
348
324
355
352
599
274
277
301
314
341
361
336
321
347
371
380
369
320
313
485
322
319
322
284
264
252
292
300
333
341
326
297
284
287
292
668
278
267
284
299
279
271
276
301
329
340
349
293
288
363
362
370
345
320
305
327
356
353
340
250
619
299
300
256
246
264
304
327
347
346
303
299
311
340
348
347
309
270
672
261
298
277
251
266
314
332
358
366
330
300
317
344
359
358
310
514
268
256
240
240
273
290
339
353
349
322
310
329
354
372
371
335
325
278
670
267
305
276
258
284
330
342
363
357
308
301
322
342
365
384
339
318
453
315
307
312
270
262
263
321
336
363
355
311
303
309
330
360
367
345
305
252
666
289
320
292
264
278
302
341
362
356
309
304
296
337
356
361
340
344
439
261
328
324
294
271
359
322
303
338
588
305
276
270
281
312
324
288
283
282
311
324
281
279
254
269
617
263
205
215
252
294
326
325
287
299
303
361
377
409
399
362
310
666
288
323
313
305
285
339
343
375
379
343
300
324
304
329
309
662
305
297
314
321
296
295
313
346
344
352
313
331
333
349
320
668
296
313
308
266
255
286
308
330
359
360
320
310
319
336
360
315
650
300
321
309
260
265
304
330
344
358
348
319
304
325
350
366
366
494
332
287
300
320
327
299
297
291
344
361
374
381
300
326
416
372
508
293
331
673
220
137
162
240
378
425
401
304
323
306
262
258
273
314
350
368
353
306
300
303
326
341
360
319
312
256
674
284
322
321
289
277
263
275
323
345
370
342
327
301
320
334
369
369
318
673
320
320
310
285
263
306
334
369
381
357
327
314
322
353
372
370
324
672
267
312
307
273
281
297
338
363
379
341
305
297
306
337
357
373
336
331
304
530
317
267
258
277
292
343
355
339
315
302
319
340
362
327
312
292
314
316
671
246
201
244
279
312
345
341
309
316
334
375
385
388
348
335
332
353
375
480
347
294
291
267
291
357
355
330
321
363
391
672
267
274
254
269
300
329
336
329
292
288
295
345
350
345
291
302
293
340
380
469
313
277
302
324
327
294
294
306
349
370
360
331
320
307
325
361
363
323
258
671
315
359
371
335
330
335
364
377
373
328
331
301
336
381
365
378
338
593
258
254
286
312
328
323
282
290
322
345
330
315
293
305
259
267
241
639
273
286
274
242
258
292
328
361
365
328
306
305
339
352
352
325
303
308
431
245
309
315
277
267
278
322
336
359
353
316
311
310
353
366
350
330
299
305
293
665
300
296
326
331
296
292
297
337
357
357
330
314
313
344
332
283
278
287
327
337
359
348
301
298
307
335
356
372
339
308
268
502
308
247
248
283
306
342
351
326
306
311
353
365
362
327
307
322
343
374
468
285
286
325
329
310
287
239
227
283
307
329
334
302
284
303
338
361
496
305
266
271
292
312
343
364
346
311
317
348
373
378
360
326
306
326
349
368
667
280
311
291
260
260
310
330
355
360
324
302
295
339
352
365
342
307
298
279
668
274
259
282
309
338
352
322
297
301
330
354
364
348
318
301
315
355
356
585
273
278
326
336
315
288
298
313
343
369
414
674
304
270
275
303
334
347
311
299
292
321
337
359
336
304
306
331
353
458
301
243
200
201
248
271
285
271
270
311
328
361
355
312
308
316
370
353
377
362
553
331
294
276
301
334
356
374
352
328
309
321
354
366
365
333
309
312
327
670
323
322
304
278
260
290
319
357
362
342
313
302
313
349
373
379
322
312
263
594
247
253
276
308
332
336
298
291
313
354
369
360
327
312
306
354
348
372
345
537
311
284
253
257
288
322
336
351
321
294
301
342
352
361
344
309
301
288
404
352
344
360
341
310
272
233
259
288
401
673
332
334
286
266
276
324
340
359
348
318
300
307
333
359
364
329
307
290
300
671
288
258
293
313
339
352
307
300
325
346
371
371
336
324
311
354
344
375
443
379
329
323
288
286
290
323
356
372
359
326
306
318
365
373
373
345
314
309
341
557
276
260
284
317
336
336
299
300
334
354
372
374
317
317
308
356
353
375
346
565
282
316
325
310
284
288
314
339
360
368
337
317
346
364
374
346
312
324
347
245
236
279
296
314
300
290
302
353
367
364
328
315
322
347
381
370
333
553
328
302
279
279
312
338
372
371
396
364
624
348
270
276
254
268
319
342
352
335
301
295
313
355
365
353
315
303
297
611
296
304
318
304
278
279
321
339
362
353
307
298
302
339
349
358
331
460
336
310
329
319
286
276
301
350
370
377
342
321
309
330
358
393
369
342
284
519
277
324
311
277
270
299
320
362
350
316
303
316
328
349
302
301
258
533
257
290
307
290
261
274
317
342
366
375
348
327
314
334
366
388
382
354
285
668
323
321
274
279
305
336
361
360
314
302
308
337
352
378
354
317
269
667
280
311
289
258
272
319
334
362
364
324
304
304
307
355
347
294
306
316
351
370
392
310
342
334
303
300
315
345
336
577
230
240
250
278
297
322
326
282
279
309
341
370
362
339
308
296
414
272
293
268
272
298
322
345
319
307
315
370
358
366
308
270
269
214
641
268
302
289
267
295
314
344
367
372
337
322
319
333
365
381
363
604
307
313
312
279
275
303
357
352
383
374
335
326
333
369
387
379
354
280
661
308
315
280
272
289
323
333
359
347
322
305
323
351
359
357
286
667
310
316
283
270
273
311
333
356
359
319
296
306
333
355
361
332
287
667
269
299
278
251
358
353
357
388
380
313
673
292
314
296
276
267
295
319
359
363
291
295
316
333
367
342
317
237
423
280
233
252
284
313
333
333
310
319
358
368
381
348
330
315
349
358
377
329
642
278
315
292
285
301
350
346
368
342
320
303
320
355
360
383
334
326
257
632
258
280
250
263
306
328
349
362
340
308
319
351
362
369
353
312
307
363
409
291
256
267
299
320
343
343
302
297
331
344
363
353
316
315
316
348
345
657
276
309
295
275
273
320
340
355
357
290
348
335
320
324
350
353
671
309
286
302
314
313
249
266
240
248
359
671
330
312
333
330
297
289
312
342
353
353
316
306
304
329
353
364
328
431
304
318
320
266
267
291
331
357
379
380
341
313
315
370
371
396
351
345
471
323
325
319
294
256
264
317
324
346
354
338
307
289
317
332
361
359
328
477
327
296
315
326
300
293
304
333
355
368
346
309
310
327
358
356
341
276
670
285
314
293
271
272
311
326
355
362
329
314
307
325
351
359
334
243
243
261
291
321
317
305
224
241
251
272
307
331
346
348
298
302
297
667
312
310
330
312
284
305
317
349
364
363
330
311
326
357
360
353
350
358
388
391
360
337
313
331
328
362
308
661
307
316
289
270
272
313
335
354
355
319
316
307
332
359
357
491
328
295
314
324
302
289
295
328
355
363
338
316
315
342
350
358
283
640
305
307
273
265
292
337
350
355
333
317
309
326
361
361
329
522
343
272
274
289
320
326
302
299
327
361
360
363
251
293
261
632
280
302
282
277
298
337
355
366
329
308
323
342
380
376
348
385
353
273
268
288
320
365
379
306
327
305
300
328
355
364
381
320
317
266
505
298
231
236
271
301
338
337
337
302
302
313
352
362
367
314
330
381
388
385
347
326
313
313
337
344
321
281
570
254
252
284
298
279
256
268
290
311
336
338
301
289
313
321
343
293
673
297
274
292
287
280
286
312
337
353
360
286
293
321
323
373
304
540
188
220
213
239
285
315
347
352
340
314
326
349
382
380
358
322
324
465
285
329
322
288
287
290
323
351
361
337
309
309
330
352
361
333
309
303
632
278
273
303
311
289
272
290
296
332
354
357
331
307
297
319
358
348
360
351
512
310
258
266
314
324
320
300
291
314
345
359
343
319
306
325
350
362
347
309
480
313
309
313
382
346
354
365
388
357
327
278
670
281
310
297
273
259
288
328
333
294
283
288
337
331
336
249
252
228
268
309
235
241
283
296
298
280
292
308
342
374
366
344
326
341
351
379
381
320
319
282
668
274
289
280
316
328
379
371
354
331
327
338
354
362
340
310
305
276
666
268
257
275
316
311
304
277
283
315
336
335
298
277
289
306
325
667
304
295
282
256
255
279
293
320
331
302
288
289
308
346
338
324
235
663
286
274
300
300
274
272
296
319
352
358
322
321
298
311
328
330
325
333
357
357
344
293
281
224
223
272
671
346
338
297
285
285
320
341
360
355
316
307
318
367
354
363
264
668
309
299
312
279
277
286
324
338
365
347
315
303
301
352
358
359
637
252
252
249
281
306
340
343
308
297
305
336
359
351
339
304
297
311
595
317
280
273
281
326
333
338
317
301
310
326
357
352
344
317
297
313
282
671
283
265
295
309
312
287
282
290
326
357
347
323
301
289
327
346
353
402
326
279
270
258
304
320
316
318
327
355
295
285
282
255
263
297
304
345
350
656
267
301
294
283
309
334
365
370
348
329
324
346
369
366
361
314
313
391
365
400
383
345
331
343
353
366
340
310
304
262
674
241
270
236
237
279
305
328
341
335
310
305
331
359
365
336
319
310
335
432
295
259
265
296
319
335
323
293
303
340
345
355
336
323
304
327
343
359
320
670
309
316
292
264
256
304
319
345
364
348
312
308
329
350
358
285
232
674
317
303
210
204
202
227
253
290
313
343
334
313
299
312
329
366
364
312
670
278
312
301
273
283
328
352
373
360
328
312
319
359
354
352
327
301
292
450
276
323
322
292
277
267
312
341
358
348
323
304
312
327
354
359
315
297
665
246
396
378
400
387
336
339
307
305
385
283
239
247
275
292
303
294
281
286
320
325
311
302
301
310
347
373
363
329
307
510
305
259
279
305
336
335
291
309
310
346
362
306
314
295
335
334
662
223
207
244
266
286
288
264
302
326
344
352
325
299
307
334
351
631
292
293
269
268
313
339
355
352
325
304
313
329
371
373
364
314
310
261
651
241
272
247
266
307
331
345
330
311
304
330
349
371
362
341
317
307
537
332
262
268
299
323
335
309
302
307
328
351
362
340
307
315
316
342
309
668
299
299
292
253
266
286
313
340
412
318
664
321
322
282
270
274
297
313
342
337
302
300
315
341
348
314
320
343
447
297
237
205
188
219
245
292
318
318
296
296
322
349
365
342
335
312
327
314
667
323
327
313
285
280
307
330
357
363
335
313
310
334
362
358
346
306
303
564
321
262
266
249
264
307
330
346
333
298
292
341
363
373
346
316
312
295
335
289
665
279
252
274
299
315
310
286
313
335
352
348
319
305
319
370
357
366
294
666
289
310
285
272
275
301
339
351
357
325
309
299
321
332
358
340
313
319
395
372
380
335
325
297
306
260
279
296
386
674
294
282
285
327
345
341
299
308
287
301
330
346
371
364
334
314
291
674
268
279
234
239
277
327
346
383
374
326
315
309
327
349
356
337
568
301
312
303
273
257
281
324
347
353
327
311
306
326
351
359
322
306
267
671
255
304
293
256
266
298
324
346
359
338
312
301
311
342
381
362
346
299
498
311
266
267
282
317
349
361
333
309
307
339
357
362
334
322
310
332
311
287
254
259
289
321
328
321
221
264
272
249
270
307
325
342
345
306
303
433
275
321
327
289
271
272
326
330
365
372
349
324
317
333
354
375
373
314
336
367
372
374
336
323
304
321
346
348
344
301
299
431
263
311
307
268
256
269
312
331
352
355
329
310
307
337
353
375
343
325
262
669
282
314
289
273
291
327
351
363
349
315
308
330
352
369
374
320
315
307
647
300
291
323
320
313
296
308
338
358
367
337
308
325
345
359
328
330
390
269
190
211
200
210
243
294
325
345
342
311
307
328
360
373
372
329
331
339
363
565
299
291
333
334
300
292
308
335
357
367
327
310
312
344
357
370
335
312
276
666
261
297
280
264
282
322
345
353
331
313
305
328
355
365
351
309
312
346
371
358
319
309
316
346
355
351
329
305
318
330
354
306
663
296
311
298
263
267
305
318
353
357
339
310
309
335
362
365
350
321
317
447
277
314
286
270
307
325
347
357
310
294
232
239
284
308
329
327
289
264
668
261
308
304
284
287
336
350
374
363
333
327
333
366
377
377
325
316
274
667
258
274
263
277
311
353
354
325
312
304
322
336
363
342
319
308
322
314
670
312
308
329
302
292
296
331
347
366
341
317
306
323
351
374
350
328
260
616
264
288
267
282
311
342
354
328
309
301
316
343
361
379
341
318
353
361
379
365
329
307
310
344
340
342
306
292
544
317
239
242
265
307
337
333
256
259
241
244
284
322
350
338
304
268
665
284
327
327
297
302
341
349
373
364
336
325
330
360
366
354
300
665
301
324
309
279
287
335
344
361
354
320
310
325
349
379
361
335
265
638
287
303
266
261
293
327
342
357
344
313
308
334
357
371
343
325
263
588
257
267
295
317
342
354
325
312
323
347
364
362
331
331
327
357
326
666
312
324
313
282
282
314
337
352
343
305
302
322
337
359
386
444
434
329
294
338
294
249
269
269
373
337
674
264
317
305
261
260
301
324
353
355
329
316
309
326
357
354
342
448
313
315
318
273
277
307
326
356
356
319
304
313
332
351
358
332
316
511
331
272
272
312
312
303
299
304
329
350
367
343
319
307
344
341
361
301
634
292
285
267
264
296
341
348
355
322
316
331
352
371
396
359
339
276
671
284
329
324
298
297
335
352
377
374
337
327
336
355
365
358
322
542
342
279
289
305
319
310
293
287
268
286
278
257
268
298
332
341
300
671
288
307
310
283
288
319
348
368
372
350
332
322
340
374
392
363
338
263
367
385
388
424
404
372
337
332
340
347
366
290
666
302
310
306
271
271
294
310
345
353
332
321
299
298
335
351
342
499
316
249
263
276
300
318
308
302
304
342
356
361
334
323
315
343
364
350
673
286
315
298
269
269
307
339
360
374
357
329
315
328
356
378
373
320
672
311
345
337
312
313
315
291
281
263
277
282
332
323
661
292
324
326
306
320
363
375
392
379
355
332
339
380
368
371
300
664
323
322
297
287
281
315
340
357
350
322
309
316
347
363
345
290
670
272
315
317
281
270
287
321
342
355
336
320
299
301
345
364
336
336
327
355
372
377
339
316
319
347
341
362
288
619
284
298
268
261
278
317
338
349
319
301
298
323
339
356
344
311
642
260
270
260
282
315
347
349
312
306
346
359
359
330
310
317
258
667
226
243
236
257
291
339
354
347
330
319
336
364
383
397
356
340
318
557
330
285
283
289
318
356
356
338
310
303
322
339
374
357
336
279
659
289
312
283
272
281
320
338
359
358
317
313
315
351
358
363
422
296
296
266
260
276
299
336
344
310
298
313
336
359
376
333
325
246
632
265
292
273
261
290
320
345
361
338
315
331
347
346
327
311
316
347
361
353
313
308
304
323
671
294
299
289
257
281
306
329
291
289
274
258
270
317
331
624
289
291
279
302
339
355
363
333
323
323
363
376
361
327
290
666
269
313
304
275
286
339
351
373
382
322
291
243
272
330
286
521
263
234
242
278
315
349
361
305
282
256
260
277
314
323
308
617
249
273
270
290
316
354
377
377
339
329
345
382
408
392
373
322
628
282
278
319
342
357
370
336
335
318
341
362
393
366
348
420
292
322
312
283
264
289
319
359
420
406
365
346
371
357
348
296
305
208
370
405
372
342
337
331
358
302
672
274
259
279
300
299
279
296
330
382
389
390
359
332
319
353
352
377
498
306
288
276
289
311
346
355
335
318
304
314
333
372
364
325
309
305
326
507
266
289
306
316
279
267
290
314
350
363
352
325
307
320
363
355
367
331
316
359
459
252
315
318
280
268
295
314
345
362
371
345
322
317
337
349
367
365
329
318
465
284
323
325
298
283
284
347
353
345
312
316
322
335
278
276
253
239
256
355
238
252
250
267
297
322
338
320
312
316
353
369
379
339
324
325
363
368
368
292
667
298
390
410
405
371
344
321
340
358
372
314
670
305
306
292
259
273
317
342
357
360
333
316
328
350
359
365
319
312
415
272
284
252
257
279
311
328
340
320
303
316
332
362
357
343
314
306
297
673
286
261
270
301
325
348
330
311
308
348
363
365
331
323
315
338
381
483
284
232
232
262
309
334
340
261
231
235
248
284
329
336
340
259
667
329
336
318
296
314
354
367
396
390
354
337
340
365
392
379
322
660
284
310
303
276
283
311
348
366
343
308
300
308
343
351
349
273
667
290
300
281
252
260
299
319
346
352
312
300
317
360
347
321
305
320
344
351
353
320
311
294
315
355
362
356
373
366
269
240
259
279
306
319
323
292
304
328
334
361
350
328
302
311
290
670
295
289
319
323
294
290
330
357
358
369
312
302
235
220
256
300
328
270
284
285
248
250
296
337
352
370
360
337
323
336
369
362
376
346
332
491
302
284
313
318
298
281
309
324
368
392
396
352
346
311
347
370
354
362
282
667
304
312
298
277
271
292
304
346
331
311
284
280
308
323
350
330
269
669
292
304
293
256
266
288
326
338
346
319
303
296
316
342
361
343
316
252
335
356
377
397
377
337
323
318
340
348
357
305
670
266
304
295
252
271
299
337
357
331
304
237
245
266
279
314
360
415
292
315
312
280
273
297
336
359
362
338
310
312
337
359
371
341
304
667
287
318
298
268
267
309
331
351
347
307
296
304
335
365
356
318
254
668
301
311
310
272
276
290
318
351
360
343
315
297
307
357
349
355
292
668
301
318
308
263
270
318
335
364
372
347
320
292
333
359
390
377
547
310
319
290
344
241
251
254
290
313
337
339
309
298
292
325
354
360
383
313
309
337
354
327
312
245
249
264
320
365
332
302
285
280
313
348
361
350
311
308
329
354
356
352
316
303
458
274
314
297
271
262
290
322
348
385
358
305
275
289
311
340
350
455
310
242
247
305
306
309
280
283
282
308
357
350
318
305
286
282
671
255
256
252
295
308
340
336
317
299
307
338
377
364
330
294
506
300
268
262
267
308
333
348
329
309
313
341
366
367
340
270
603
261
269
282
310
331
356
352
331
309
350
340
342
275
669
216
256
272
262
243
274
294
325
349
349
318
308
316
355
622
311
267
258
264
306
324
349
325
307
307
341
353
362
324
300
313
341
365
352
309
301
301
335
346
361
377
345
347
388
347
278
672
254
260
275
310
333
342
321
290
292
325
341
344
317
303
289
328
336
345
283
669
298
306
301
281
263
296
317
345
352
326
303
299
327
344
363
346
325
290
305
297
673
279
248
264
303
315
337
336
301
312
338
349
339
322
298
318
284
311
298
284
252
483
285
264
252
272
315
344
355
340
320
316
323
348
362
349
320
307
319
351
354
320
670
288
302
298
262
254
283
304
334
347
332
307
288
295
317
338
344
298
312
295
300
280
670
270
242
269
292
290
349
366
373
387
381
350
321
318
428
237
293
293
264
245
242
291
309
326
309
281
280
288
332
336
312
288
289
290
319
298
671
282
287
283
248
245
285
310
335
330
297
291
325
334
315
306
286
306
260
268
542
237
212
220
248
271
307
334
302
289
302
343
352
354
330
317
308
338
372
363
365
409
325
269
268
277
303
313
326
315
296
306
347
350
342
308
297
313
353
357
344
269
634
291
288
266
247
268
312
324
340
328
302
298
302
339
348
343
307
257
669
264
292
292
242
249
290
308
339
346
322
297
298
316
325
346
331
292
342
413
416
412
366
326
320
309
366
372
360
403
327
260
265
249
232
275
303
324
326
298
278
224
224
282
287
310
256
668
279
260
283
299
298
287
294
316
345
356
348
321
300
328
334
361
487
285
277
250
254
277
293
330
322
290
291
305
334
347
337
288
294
300
296
670
316
298
314
287
261
276
299
329
345
342
304
287
290
318
330
341
447
312
283
303
307
272
268
275
309
331
347
337
296
295
303
339
345
338
584
278
280
304
291
248
263
289
311
336
349
329
298
293
324
334
344
266
313
293
287
310
328
313
301
235
239
248
671
313
301
315
328
329
295
293
309
339
341
318
302
280
286
295
647
301
304
307
291
254
279
294
321
343
340
292
297
294
328
341
341
567
284
295
290
244
238
249
290
309
341
334
315
284
271
299
321
327
298
671
297
286
289
261
259
288
315
353
362
346
318
307
317
339
354
374
474
315
278
301
315
284
286
284
307
331
350
330
303
303
299
337
287
658
268
247
256
297
317
339
324
293
308
338
347
342
291
295
221
344
203
255
265
233
226
272
323
325
352
348
313
304
325
367
378
368
305
666
301
307
305
281
296
339
362
385
390
669
297
282
305
321
323
302
287
284
323
332
338
316
297
290
304
340
319
672
277
261
280
275
244
257
285
321
333
350
328
305
303
322
347
367
347
310
239
672
295
298
287
259
276
296
329
348
340
307
300
328
523
672
600
407
214
171
370
231
192
221
256
275
277
253
269
322
335
342
315
312
300
311
314
309
270
333
267
233
231
264
292
307
312
288
294
312
333
357
358
322
298
311
326
358
356
333
260
670
294
301
266
248
253
292
317
345
354
325
311
296
309
328
355
353
310
304
288
670
240
286
281
256
265
298
336
357
674
252
674
332
674
426
188
79
121
14
17
23
409
24
4
4
4
25
202
168
141
139
207
260
282
305
323
321
342
378
397
418
407
376
362
366
404
408
406
311
674
344
339
295
285
333
345
369
390
355
330
279
263
294
318
346
347
316
263
668
284
322
325
290
292
325
336
367
364
336
325
322
351
360
344
323
309
513
312
249
248
266
282
294
299
278
294
322
339
334
318
284
288
347
354
383
360
659
280
309
302
273
306
348
360
376
351
323
285
279
337
346
379
368
276
670
296
307
296
241
245
294
313
350
370
370
331
311
277
348
342
348
305
289
300
355
356
359
321
295
309
302
345
299
667
295
303
298
259
283
296
325
298
304
286
254
249
294
331
335
669
287
341
373
375
318
369
355
327
331
372
379
383
326
308
283
266
667
241
274
247
225
255
327
308
354
360
315
290
262
275
293
328
311
655
283
326
329
272
289
283
302
350
365
355
314
322
298
300
303
668
303
285
305
306
284
283
256
282
320
326
327
318
270
279
222
668
304
344
314
281
305
323
351
375
386
367
317
305
320
366
669
328
323
270
250
233
293
305
470
385
358
380
384
390
234
339
327
299
299
340
372
378
367
296
666
336
338
298
275
281
349
370
392
389
332
344
300
293
293
671
313
294
325
321
290
299
292
343
366
374
344
332
287
291
286
626
283
275
317
321
327
290
289
342
370
381
351
341
293
288
259
673
239
297
291
267
295
315
340
353
354
312
304
327
329
361
328
648
316
312
276
272
303
342
352
369
369
325
321
347
369
369
335
672
303
320
285
267
274
319
350
340
300
300
335
348
345
283
337
259
265
232
233
251
272
321
348
357
327
314
324
350
371
377
347
324
282
670
266
304
283
261
284
391
380
394
318
669
315
315
284
265
266
296
317
347
345
313
297
296
322
350
345
320
269
514
283
314
295
264
270
313
330
358
367
343
317
318
340
358
369
355
290
676
298
319
291
259
265
322
330
364
370
344
330
316
329
350
377
366
340
341
520
282
269
303
309
303
314
309
321
352
332
309
305
328
383
358
353
191
282
252
285
289
283
266
275
307
329
360
384
368
341
333
363
371
366
302
668
313
318
306
280
258
307
333
353
339
307
289
295
327
353
355
293
670
287
317
309
266
264
299
318
354
360
348
318
299
322
320
381
352
352
327
340
371
381
362
346
319
306
293
657
277
268
298
303
317
303
294
326
354
372
349
354
306
306
340
454
258
305
316
262
271
296
330
346
357
351
329
310
342
349
362
579
292
314
303
292
292
337
315
334
343
319
316
329
357
373
373
369
516
311
307
345
354
329
320
323
324
354
362
356
322
326
329
352
321
667
281
304
283
252
252
293
315
347
346
331
308
309
331
357
360
329
267
670
286
308
310
268
276
299
327
347
360
365
314
316
325
346
356
350
319
297
668
259
302
282
254
282
323
349
357
359
318
316
326
351
340
292
280
282
318
354
358
335
322
309
323
345
360
327
328
302
298
674
277
245
275
303
327
288
281
261
271
312
334
351
330
309
326
335
374
333
663
316
324
314
289
278
308
325
362
377
359
335
322
330
376
365
374
328
324
427
270
320
324
311
280
284
330
350
374
371
331
318
310
340
361
370
320
339
335
491
300
263
289
304
313
294
290
318
345
362
352
328
300
312
353
350
366
337
571
262
289
304
303
271
282
291
324
359
369
340
323
304
302
342
356
366
429
307
312
290
264
256
274
316
350
399
380
362
358
393
403
387
312
299
320
350
364
371
342
317
303
317
333
360
344
656
257
286
257
250
278
319
340
357
341
317
306
333
358
374
351
330
251
503
271
302
285
257
265
321
335
374
374
338
318
319
329
367
367
346
367
460
257
326
334
287
286
307
337
350
380
380
320
320
318
362
360
380
361
591
300
330
336
303
291
301
352
363
370
341
333
319
341
343
369
303
663
308
307
303
282
263
312
328
354
369
353
299
304
340
342
357
672
225
264
276
260
239
271
306
324
352
367
356
317
310
337
363
372
358
484
312
264
281
310
319
310
313
319
347
402
370
670
297
287
267
298
308
345
352
314
304
298
329
344
349
310
292
296
338
520
264
284
307
305
261
272
289
305
346
357
341
322
315
324
342
382
363
336
268
599
261
271
276
285
333
362
348
336
321
338
369
376
350
337
343
350
373
333
672
312
311
279
268
286
322
334
369
362
307
303
320
341
373
362
330
359
258
241
241
269
320
332
350
339
321
335
372
378
376
326
318
336
362
373
377
303
669
323
303
293
271
262
306
337
357
358
315
296
286
308
324
342
355
315
296
243
667
263
313
318
288
299
327
333
385
378
364
672
304
287
304
338
352
325
303
301
331
342
361
349
317
314
314
340
308
674
302
279
312
312
293
292
307
338
356
369
341
323
312
314
358
361
351
612
269
255
267
297
324
349
342
318
343
356
369
360
318
323
266
266
310
416
260
252
261
284
312
343
352
319
312
317
346
367
362
322
318
319
326
670
313
308
320
280
267
289
311
341
360
356
321
313
314
341
367
367
318
523
321
256
269
261
293
314
347
338
302
303
312
354
357
357
316
309
301
298
666
302
293
322
322
292
302
298
347
366
364
328
309
306
349
367
351
280
665
360
393
363
329
325
346
332
318
272
674
302
278
280
293
254
282
289
300
332
318
283
286
348
312
325
318
432
272
246
294
314
311
288
295
320
346
379
388
364
340
336
329
367
347
667
306
327
289
268
270
320
334
368
366
327
304
297
311
352
352
339
320
401
248
303
307
282
274
262
306
331
351
349
313
304
299
347
367
363
327
333
528
300
267
279
302
338
367
360
317
318
341
369
372
368
340
323
325
362
327
665
315
328
312
270
281
302
335
355
369
352
326
303
315
366
355
373
307
670
305
310
315
329
380
375
387
339
315
298
420
260
266
253
268
310
345
373
368
332
332
337
383
379
372
322
312
330
354
368
500
305
270
258
264
288
329
345
324
310
307
336
353
358
319
310
298
336
333
362
340
641
259
289
274
260
284
338
343
368
338
313
307
336
365
377
356
325
309
315
446
675
525
675
138
499
389
231
185
174
39
11
3
2
70
54
106
192
259
240
540
264
245
252
297
317
374
380
355
333
332
342
385
397
401
366
328
340
331
669
328
309
281
271
253
283
313
355
378
388
371
330
327
340
387
376
386
471
327
311
341
325
289
277
301
339
356
386
672
264
265
250
265
307
337
347
298
287
276
315
341
358
364
300
297
254
672
248
306
306
272
283
283
306
334
349
328
305
292
300
350
363
327
671
285
326
321
283
290
307
335
365
380
369
330
319
342
338
376
355
652
254
305
309
266
284
328
368
396
399
365
337
293
306
318
370
671
320
253
262
251
297
322
350
311
317
279
276
298
342
344
307
667
285
317
304
280
268
320
343
359
379
355
333
326
328
360
382
338
666
285
323
319
280
283
318
344
355
365
337
300
300
326
354
366
479
322
265
265
307
312
327
299
300
305
319
318
276
260
283
295
321
341
316
303
307
339
348
355
323
298
287
304
346
615
307
258
248
230
252
300
339
354
351
319
317
316
353
363
353
329
307
325
305
667
296
291
331
318
310
334
371
376
355
342
322
336
302
311
298
277
366
253
279
262
256
280
304
351
350
335
324
328
362
373
357
329
330
320
353
313
594
306
262
262
259
301
338
348
336
301
307
328
341
372
382
366
308
317
276
668
254
245
254
295
326
360
361
322
316
318
350
365
375
341
326
308
333
311
669
319
309
314
276
274
296
331
353
365
333
307
301
322
326
316
280
279
332
349
366
360
316
306
313
349
360
350
315
295
246
672
247
307
248
266
280
302
343
349
345
256
280
262
264
318
318
347
307
610
261
269
254
275
307
353
364
364
318
315
328
358
371
379
354
318
312
298
669
307
297
320
318
282
295
315
347
365
362
330
307
312
340
363
361
316
464
334
291
313
323
290
272
281
300
335
351
362
337
302
302
313
352
361
356
627
265
253
248
282
302
339
350
309
300
321
335
366
365
328
325
310
340
316
621
301
298
257
253
287
325
340
363
350
323
307
413
386
400
407
352
672
352
388
375
339
320
326
322
364
322
671
317
326
302
285
264
301
339
346
367
343
315
304
313
359
360
359
264
672
317
310
307
271
278
302
331
349
369
365
338
309
313
339
363
367
339
540
334
260
266
266
294
323
362
342
319
312
327
359
377
377
335
335
321
349
378
534
285
330
334
311
290
295
343
357
369
357
326
312
314
371
354
367
289
668
304
326
321
281
288
316
332
360
367
343
315
307
334
351
320
269
672
290
268
244
217
223
278
295
328
349
350
315
305
330
358
383
371
333
274
647
286
310
274
268
299
330
350
372
410
346
514
320
281
302
331
335
313
300
306
328
362
354
320
311
300
341
333
356
304
669
305
307
304
280
272
301
318
358
367
346
319
311
331
352
376
356
319
269
675
288
320
318
282
281
312
340
360
371
349
326
312
318
369
368
391
362
346
350
502
291
282
310
325
329
303
300
315
346
365
323
300
301
333
361
361
314
669
262
280
296
265
257
297
325
350
370
366
336
318
315
341
380
373
360
262
667
320
322
304
277
282
306
327
359
374
353
322
311
318
339
362
360
311
667
261
304
281
259
258
317
334
365
366
330
314
315
319
339
302
295
304
355
353
371
348
308
296
303
349
344
360
308
672
288
314
278
199
281
338
330
308
281
309
332
365
374
327
315
264
456
301
256
256
300
308
335
303
291
319
351
370
329
331
303
320
382
395
318
263
279
277
231
244
294
317
350
370
382
355
319
340
322
362
333
667
347
354
352
309
303
339
352
391
397
370
320
306
325
337
373
621
278
254
248
279
299
334
344
323
295
296
327
349
356
352
299
290
237
667
250
298
285
259
258
294
317
344
352
308
291
292
328
358
358
341
258
540
247
288
303
311
303
291
297
374
390
465
361
310
320
323
281
268
274
314
336
360
359
322
302
303
330
362
356
250
670
294
273
307
257
252
255
246
290
308
338
345
316
307
311
345
365
374
312
668
285
316
306
262
261
298
318
361
361
338
314
306
331
359
370
368
326
310
320
581
323
275
265
260
303
340
353
361
317
299
306
333
355
362
354
315
305
455
265
319
309
266
261
265
308
330
356
330
296
290
297
332
343
359
325
292
368
250
264
241
242
279
309
333
318
298
299
336
364
377
359
321
314
299
317
298
667
312
311
322
291
361
361
395
404
408
354
281
295
325
336
335
309
296
320
350
359
352
319
314
309
334
593
290
259
254
270
306
320
333
314
301
315
353
371
358
340
312
310
360
379
300
305
301
274
262
277
314
332
361
343
319
308
320
351
366
354
282
672
307
320
295
280
278
334
356
383
363
331
320
328
350
362
365
304
669
293
317
299
270
273
287
342
358
360
333
309
312
344
356
353
276
671
315
308
285
262
271
313
334
353
363
326
319
338
367
357
322
258
648
227
266
267
253
265
307
326
353
369
359
336
331
345
361
388
381
348
561
321
327
295
282
279
315
350
408
379
317
674
327
335
296
281
276
336
366
364
333
315
292
303
345
359
349
314
301
249
672
254
303
306
286
268
300
318
346
363
356
321
310
319
350
359
368
325
305
359
361
294
297
310
286
261
263
324
336
370
374
337
307
297
312
361
375
389
329
301
393
307
316
268
271
282
339
338
359
270
313
296
270
290
279
349
340
351
298
658
282
333
337
292
280
302
336
362
381
387
335
315
295
310
350
359
361
297
669
325
326
276
274
280
341
342
378
353
302
302
314
364
398
385
387
291
648
303
314
278
257
246
280
307
343
353
671
307
282
297
336
383
379
334
332
332
370
373
378
350
312
311
354
435
273
266
253
268
312
351
362
332
312
290
308
339
357
361
323
292
285
472
291
267
291
298
276
249
266
297
325
338
312
295
283
335
339
374
319
320
281
404
288
285
312
301
256
277
296
334
358
379
386
359
321
311
324
373
362
382
383
592
310
334
304
277
256
304
338
348
380
375
336
320
300
324
362
369
366
580
281
296
323
309
268
277
286
317
343
366
360
319
305
300
332
349
366
291
668
308
318
285
248
244
292
320
361
364
338
307
293
309
353
359
357
318
323
352
377
380
348
321
305
314
352
341
666
298
320
289
256
255
298
329
363
346
309
296
323
315
345
403
268
220
240
295
303
301
284
292
321
346
376
376
329
331
312
340
304
661
297
283
316
321
332
301
300
326
345
374
375
344
310
301
262
667
247
292
280
253
284
326
344
373
374
338
313
311
333
364
336
668
321
324
282
261
271
328
341
366
363
316
311
313
351
362
339
668
284
327
317
264
258
300
335
361
372
366
334
302
305
332
342
667
322
324
295
254
251
308
316
362
372
366
336
307
391
373
357
669
323
298
368
326
338
343
381
385
563
295
325
317
283
272
282
320
345
360
369
340
315
309
311
361
334
672
325
333
309
266
264
308
344
369
386
374
336
326
302
332
366
353
672
271
325
321
269
273
285
326
339
371
377
344
318
303
330
345
374
308
671
318
319
306
244
258
300
327
354
375
373
330
309
310
344
368
379
333
672
290
320
276
261
269
325
336
377
379
333
308
301
327
359
370
371
290
674
329
331
245
258
293
322
354
366
366
271
315
306
288
283
323
322
664
315
324
308
264
281
299
324
353
377
380
338
315
313
340
353
378
341
334
344
369
414
426
366
338
299
308
334
343
669
309
292
293
231
242
246
291
308
348
354
327
297
278
292
324
322
674
318
309
307
242
259
274
316
336
373
385
348
338
323
329
371
332
676
326
313
345
345
291
301
284
334
352
392
404
362
346
271
272
285
420
268
363
353
375
326
323
338
420
417
395
376
314
314
333
301
572
273
226
253
265
286
321
333
329
292
283
322
341
380
381
347
281
670
320
330
297
269
278
314
332
360
375
355
319
321
324
348
372
332
670
310
317
274
259
260
316
333
354
359
313
310
309
341
359
348
286
295
336
349
372
374
341
321
310
337
348
369
342
320
440
317
297
311
303
265
263
299
336
350
363
345
309
310
342
353
376
349
331
391
310
264
267
299
316
318
307
304
323
345
362
333
320
314
357
358
373
265
667
253
241
264
288
328
355
346
322
320
334
356
370
375
335
316
317
309
668
317
312
318
268
266
312
326
356
374
367
334
320
332
367
362
374
327
543
295
327
317
281
276
307
345
359
364
328
316
313
341
356
363
430
282
304
302
271
253
259
315
343
352
337
311
309
312
362
352
337
455
298
299
322
311
295
358
363
335
670
336
338
327
295
286
295
332
351
353
333
315
300
319
344
556
274
307
316
286
280
290
318
310
301
272
283
274
310
295
668
298
293
320
301
283
303
330
350
374
378
336
343
318
326
296
669
293
277
297
325
332
321
304
309
334
354
367
341
319
325
319
350
314
662
313
315
315
274
272
300
323
338
365
347
322
314
326
351
378
362
322
267
664
301
322
314
287
276
303
338
353
361
323
311
308
334
366
368
324
311
259
668
255
300
290
256
275
311
332
358
369
348
332
309
322
354
369
366
362
372
353
672
320
313
365
336
335
373
383
367
337
315
320
320
672
323
326
304
285
272
296
317
354
359
333
317
302
315
340
355
369
335
327
460
291
306
318
296
265
265
318
347
365
360
326
317
321
342
372
373
337
327
310
321
671
293
282
314
318
300
297
304
336
362
366
333
314
314
341
361
375
343
324
282
672
268
308
303
282
286
341
356
370
356
329
320
324
348
379
362
336
276
671
291
316
286
271
278
324
338
358
312
306
313
353
386
361
344
289
266
212
224
263
276
308
327
334
298
297
332
327
311
328
322
349
349
383
346
531
305
292
261
357
366
387
383
329
671
304
318
268
265
262
319
341
360
356
317
307
325
351
360
355
316
490
317
261
276
296
315
319
304
306
323
361
368
336
331
315
323
307
674
301
282
306
304
308
324
315
333
350
379
375
334
330
323
350
368
668
300
320
283
280
288
328
355
365
344
319
314
334
350
367
305
364
343
269
266
297
305
254
267
272
265
301
330
352
364
328
313
333
336
362
316
670
333
326
296
270
280
312
338
353
372
349
330
322
332
358
381
353
324
263
631
265
284
265
266
310
337
357
355
319
322
315
327
346
376
357
312
296
371
361
381
371
329
311
325
340
364
340
314
281
543
279
291
258
246
243
321
325
362
361
324
304
301
325
363
366
353
309
256
672
286
315
313
280
271
300
328
356
379
391
357
343
332
354
367
363
320
671
231
269
277
261
254
281
312
338
355
362
318
308
324
339
368
358
325
309
552
302
285
263
251
280
316
350
355
344
324
329
343
360
358
313
322
310
330
484
249
289
295
299
259
265
302
330
356
361
358
322
321
345
365
357
339
310
316
342
578
270
268
260
291
320
344
332
311
306
320
353
362
323
306
299
310
337
664
331
353
365
376
356
321
306
330
351
355
401
345
275
276
240
239
269
306
337
348
295
301
334
355
372
349
337
250
257
256
540
295
244
258
265
315
349
367
356
321
314
333
367
384
379
336
327
294
664
257
280
266
280
312
349
360
347
319
303
319
339
360
352
344
304
292
518
317
241
240
255
282
312
346
332
304
296
317
347
361
341
309
308
318
343
666
297
297
291
260
248
285
306
335
354
361
331
319
316
342
379
374
349
328
595
293
311
323
290
276
299
323
336
360
359
316
309
311
348
361
354
465
309
351
346
290
283
298
348
387
327
676
316
294
314
285
284
291
309
340
355
359
325
307
317
329
354
363
329
447
259
311
318
282
261
261
312
332
364
369
354
329
322
340
357
384
346
332
351
525
297
278
294
317
320
304
317
326
356
365
353
316
308
315
359
361
346
562
299
333
317
284
264
276
332
339
364
369
331
316
311
329
356
378
349
327
237
652
302
302
282
261
279
314
339
355
359
324
314
327
341
372
395
341
333
671
271
262
274
301
297
274
256
264
290
312
349
348
320
317
312
333
315
670
318
316
300
271
271
314
328
359
368
357
319
323
307
342
333
295
277
309
331
363
369
360
328
313
331
355
375
385
345
293
672
291
311
274
268
286
313
342
366
362
316
302
314
328
367
357
326
251
672
308
315
278
261
266
309
331
350
340
310
313
337
333
324
334
308
270
673
252
302
307
298
268
284
287
319
340
357
334
334
313
336
377
381
222
550
291
256
267
218
199
267
312
334
365
359
317
308
323
377
381
391
353
331
437
289
333
340
312
296
279
311
342
363
375
355
328
307
329
361
385
376
350
282
654
294
318
274
260
268
313
327
343
341
283
279
299
319
338
353
458
383
349
347
383
391
408
361
345
272
621
279
275
254
252
314
343
360
362
318
306
316
371
353
364
306
674
292
308
283
275
274
317
334
357
356
317
304
309
339
334
356
300
670
304
297
267
272
304
326
368
376
362
289
287
280
313
350
359
362
270
663
309
301
312
297
286
293
302
347
354
356
321
306
308
343
364
364
319
308
268
670
256
306
308
262
275
321
332
367
377
353
331
323
346
369
377
364
332
314
283
671
261
260
265
295
317
354
355
321
310
324
351
367
352
323
302
317
322
352
325
604
247
261
252
274
305
344
355
383
335
338
599
338
261
268
260
283
326
350
330
304
301
316
350
363
353
308
301
321
332
672
316
313
268
220
219
246
273
303
339
352
327
307
311
338
367
387
353
336
353
426
271
307
273
214
278
317
314
329
356
357
347
312
295
307
316
347
299
667
297
300
296
267
267
308
334
370
381
371
336
340
341
399
392
389
283
669
330
332
321
276
295
312
338
352
362
346
317
312
322
352
360
342
644
251
277
263
245
280
327
339
352
319
304
302
339
359
385
368
353
278
577
272
266
299
313
340
354
326
320
395
388
405
399
353
335
276
359
356
377
353
324
320
316
344
370
359
338
496
303
249
271
297
304
307
311
302
322
338
355
351
329
303
320
318
360
360
338
535
315
280
261
257
282
312
361
369
341
320
308
334
358
373
372
333
310
305
279
672
281
255
265
298
321
360
355
313
312
316
344
366
351
324
317
323
349
362
407
416
267
309
305
260
268
292
332
345
365
343
322
318
332
347
367
356
334
326
338
299
672
282
266
288
302
309
304
323
353
356
377
288
308
289
292
299
343
352
346
383
354
266
257
282
301
322
324
312
315
342
366
372
352
329
318
295
326
322
281
286
325
344
363
365
325
317
321
336
363
361
339
303
307
256
672
255
304
297
259
271
313
326
355
368
336
331
320
341
358
370
372
337
328
475
268
293
318
316
281
282
313
339
355
367
340
322
316
340
350
385
360
340
262
507
273
307
289
257
269
320
336
355
361
334
319
316
359
352
331
311
279
671
213
266
261
230
256
304
318
341
355
364
325
322
344
373
389
374
345
281
668
291
309
282
288
306
340
356
364
329
313
318
350
363
366
332
309
292
666
262
256
254
287
306
346
335
310
303
325
331
357
365
325
343
276
291
325
337
362
372
341
313
313
327
352
380
359
334
231
607
289
267
249
252
300
336
359
361
339
320
321
344
362
382
368
323
316
307
672
302
283
308
325
318
309
296
320
358
361
312
313
324
351
349
322
669
236
278
293
277
265
276
311
328
354
374
349
338
326
332
372
366
384
293
572
255
257
270
311
330
355
320
313
326
348
372
381
358
333
338
342
368
332
669
312
324
297
280
281
328
334
354
358
325
310
319
346
373
357
331
317
557
289
291
252
257
262
325
337
371
362
336
323
319
348
352
362
328
310
583
289
340
370
375
395
380
329
320
324
350
411
368
313
317
288
267
268
300
346
351
360
303
300
330
339
374
355
320
365
233
261
237
229
245
275
318
348
352
318
316
330
364
357
346
336
323
353
380
565
263
272
311
319
289
302
312
335
368
369
351
335
319
328
353
378
332
670
299
326
319
294
288
321
345
385
406
395
380
350
352
390
373
397
324
668
316
323
302
284
275
305
334
358
361
327
311
300
326
343
361
334
417
276
278
297
281
253
272
317
320
352
361
332
313
306
345
346
357
256
549
277
251
245
357
365
381
350
336
310
265
304
306
285
279
283
312
340
357
347
328
330
363
355
378
300
674
328
331
309
276
289
326
347
374
371
349
334
324
360
366
371
275
499
275
312
305
275
275
329
335
375
373
350
335
324
339
371
374
353
480
284
283
308
325
295
278
306
322
350
377
387
355
336
333
352
357
375
315
672
316
324
307
274
280
310
328
340
360
333
312
310
324
354
353
326
256
483
254
297
292
277
259
306
326
362
362
353
336
310
324
289
672
247
212
246
266
304
347
340
317
322
338
362
378
375
342
328
336
381
490
309
273
275
290
321
332
330
362
378
388
319
628
306
316
270
275
295
332
359
373
385
361
321
316
318
357
375
364
316
672
288
311
308
252
260
306
317
358
377
382
347
329
335
366
391
389
368
378
536
316
268
281
301
332
344
323
298
301
324
340
359
322
311
292
304
473
258
292
305
300
268
258
299
318
344
355
350
318
318
382
360
366
281
642
251
271
276
259
252
291
301
346
363
372
339
316
310
335
374
378
332
670
306
330
284
261
258
322
328
370
376
347
311
302
322
344
388
377
359
284
471
289
253
249
254
312
342
352
314
297
285
310
330
359
368
340
306
340
368
384
362
331
308
321
343
388
368
373
283
599
300
276
252
261
298
352
363
363
321
315
325
352
376
400
350
339
278
463
321
303
318
324
296
303
296
344
359
373
352
331
317
356
369
335
672
314
276
269
251
247
302
337
356
366
334
319
312
365
364
372
307
640
286
302
276
270
304
346
359
373
356
323
315
320
374
359
370
423
354
293
296
267
262
295
332
362
356
325
316
315
355
367
370
330
325
249
661
293
310
288
259
278
319
349
368
362
328
315
330
360
363
362
403
303
302
267
268
295
313
339
349
313
300
674
296
279
284
322
357
366
339
314
307
337
351
369
353
325
256
672
308
314
278
254
299
316
351
373
363
321
250
271
260
264
668
254
258
256
272
316
358
364
346
320
318
349
372
379
349
292
666
277
313
294
266
266
328
340
367
362
325
313
310
361
369
364
563
301
322
326
288
279
279
328
339
363
358
320
310
316
350
363
329
667
308
316
275
259
269
335
340
367
357
319
314
322
359
358
366
257
663
338
312
284
250
240
268
321
323
385
379
370
298
329
303
286
624
258
248
278
289
319
336
314
295
409
380
392
415
393
355
309
344
374
398
389
356
336
333
350
334
672
309
303
299
251
256
301
324
341
364
352
328
313
338
333
361
293
671
302
301
300
271
272
298
319
350
363
354
321
316
340
342
367
312
675
310
313
305
271
279
307
330
359
367
338
321
319
345
358
360
317
593
260
266
281
300
321
338
325
317
321
336
364
345
317
324
321
340
672
314
306
300
271
253
293
316
343
357
367
347
320
321
327
362
372
345
618
289
304
313
298
282
315
281
304
343
344
328
294
295
334
357
361
500
308
272
262
283
293
325
331
315
310
334
365
373
352
323
281
308
326
353
355
311
304
326
339
363
360
325
310
308
337
281
675
255
265
236
237
303
313
352
349
331
315
316
346
357
368
345
309
311
312
664
300
293
325
313
295
301
318
347
367
382
348
333
327
378
366
388
335
661
329
325
292
277
279
331
346
366
353
315
314
322
349
346
335
313
310
412
271
229
244
267
291
282
243
242
252
293
313
338
336
306
290
324
343
365
448
316
297
320
319
283
272
301
333
340
368
359
321
306
329
350
377
350
334
257
645
265
284
256
254
269
316
326
350
336
315
309
322
350
379
351
323
229
329
352
371
379
369
335
321
323
359
370
325
672
294
314
299
261
266
307
314
352
365
352
320
320
339
343
371
353
320
493
333
264
267
305
320
327
323
307
318
362
364
360
324
312
315
348
326
672
254
287
247
206
208
235
263
292
334
334
335
298
308
326
360
356
343
253
580
302
273
264
270
315
364
366
337
315
321
328
363
369
351
332
317
281
667
261
264
257
278
313
331
321
293
298
318
339
350
322
315
297
320
279
667
268
243
266
297
321
322
300
296
314
340
355
330
316
321
311
335
280
671
284
266
298
302
298
299
304
377
379
673
289
317
288
266
280
320
349
358
347
314
307
318
342
357
343
309
252
262
268
293
276
270
251
284
266
289
312
306
276
288
312
323
350
344
302
667
257
295
273
254
265
308
325
361
367
344
324
329
342
346
366
324
311
391
278
263
252
272
286
316
338
333
316
323
337
366
376
360
329
330
353
376
348
669
332
328
286
286
291
316
347
357
343
311
303
314
334
366
349
328
267
553
263
291
301
299
266
280
296
328
338
347
321
299
307
346
343
345
253
597
293
268
257
260
301
342
349
338
306
384
387
393
383
352
320
282
371
362
382
373
338
320
317
337
362
360
333
537
306
287
260
263
288
316
346
348
308
305
325
349
360
346
331
307
329
313
672
309
310
296
264
263
308
324
355
361
342
320
308
333
352
366
350
289
675
286
308
310
270
273
307
318
352
363
354
312
315
332
366
366
357
273
671
306
321
291
276
288
333
345
369
371
331
317
316
357
354
369
307
672
315
323
287
280
273
327
344
370
376
331
323
314
356
360
292
671
311
286
248
230
232
278
295
333
354
353
310
304
324
326
353
335
661
315
319
263
260
269
324
329
371
365
335
299
303
333
337
314
298
295
328
350
372
373
338
288
245
261
671
257
261
243
260
295
334
347
320
286
282
300
322
347
345
279
673
301
300
303
267
270
307
323
358
365
353
315
313
352
352
375
303
675
316
304
317
322
313
303
315
338
359
372
358
328
318
314
351
403
397
306
308
280
264
261
340
338
338
300
319
294
311
305
297
282
220
430
264
236
240
279
307
344
358
338
310
316
339
360
373
344
336
314
324
321
657
318
318
315
274
293
337
338
375
380
341
333
338
353
369
374
340
319
281
670
255
297
276
265
283
321
342
402
369
597
310
322
314
289
267
273
309
323
346
349
311
293
300
346
350
355
305
300
224
667
296
284
303
275
283
299
323
345
363
350
311
308
340
356
367
348
321
321
434
250
287
263
268
311
329
349
345
312
323
296
313
324
312
290
293
317
341
548
264
269
311
317
308
272
300
302
326
361
367
351
316
307
331
340
361
285
670
298
284
301
296
278
289
311
343
359
346
324
312
304
345
365
375
303
669
338
330
304
282
273
327
361
375
383
351
332
311
326
350
361
336
311
398
251
295
285
263
246
276
306
334
344
328
298
299
610
331
314
275
265
294
326
352
349
314
312
305
330
347
360
321
297
222
585
233
222
251
296
332
348
330
256
261
248
265
316
332
358
354
281
668
308
316
289
256
271
318
341
350
374
359
323
309
321
350
369
370
353
458
273
298
311
280
259
272
314
328
354
364
338
306
309
321
354
364
327
670
266
303
279
248
248
307
312
357
366
343
303
299
317
336
359
343
292
670
261
305
301
268
260
302
321
354
374
360
322
313
325
359
358
374
284
668
317
308
311
275
263
296
316
350
364
342
308
305
318
346
343
674
272
313
304
225
335
342
336
376
298
618
303
319
309
272
280
293
332
342
364
351
318
302
313
341
366
372
354
571
318
318
272
273
270
302
346
361
377
343
331
316
343
352
381
371
329
293
668
263
312
310
273
266
307
319
365
364
345
321
311
325
341
372
358
324
646
265
270
254
262
298
336
349
328
302
307
325
352
373
360
340
327
327
356
308
676
291
279
295
309
294
297
297
336
366
370
345
330
306
315
352
372
326
266
672
324
315
251
244
240
268
310
334
361
360
323
323
328
366
392
368
363
267
660
315
329
320
297
282
308
324
355
375
396
665
313
294
318
320
289
292
299
347
352
340
313
306
331
359
359
331
310
312
338
446
260
267
242
266
307
330
351
329
311
315
354
364
358
328
325
340
352
371
309
669
316
320
289
273
286
322
348
358
355
312
302
316
334
362
373
324
314
319
529
296
253
257
261
297
345
352
341
308
308
357
366
344
310
324
335
360
405
296
264
301
313
294
272
286
319
348
365
380
355
331
322
350
372
393
365
341
264
668
309
317
270
267
281
324
334
360
352
311
303
305
331
366
357
334
265
669
292
312
280
263
265
312
324
351
348
311
673
285
277
268
287
337
349
334
306
299
317
340
352
342
297
296
304
340
559
277
248
264
290
300
309
304
286
313
339
357
358
329
320
308
343
368
364
336
355
373
258
261
268
303
317
290
283
304
343
364
355
320
261
268
264
306
309
584
248
265
256
270
320
364
363
333
295
270
315
328
347
399
369
352
250
497
240
271
277
303
287
291
285
296
322
338
342
309
294
316
325
346
308
666
306
323
295
280
282
316
344
358
361
327
313
323
332
363
356
314
510
339
271
267
312
328
318
322
303
305
323
352
363
337
322
304
311
284
354
384
358
330
316
324
344
367
353
312
258
675
279
299
288
267
261
294
332
347
306
296
294
328
353
356
331
260
438
285
228
241
273
298
318
332
304
310
339
355
378
368
345
322
345
366
375
358
608
274
292
311
330
317
308
302
320
353
353
355
312
308
314
345
365
344
528
321
247
247
265
293
306
337
329
319
306
338
350
358
337
303
311
334
357
366
289
667
309
308
302
262
275
316
336
360
370
353
322
306
335
353
366
360
315
308
351
506
258
298
310
299
277
273
304
328
344
349
302
303
324
329
390
371
341
333
561
297
370
389
361
327
316
327
356
356
362
254
673
270
237
256
283
325
344
356
331
321
305
333
357
368
344
325
310
326
310
672
314
300
322
311
282
290
310
335
363
369
345
318
313
322
360
365
363
292
495
308
247
245
273
299
353
352
339
305
303
325
338
362
360
325
318
312
302
673
278
252
271
290
321
349
335
315
309
331
357
368
343
319
312
340
351
365
671
289
318
288
282
303
346
369
382
363
342
359
372
369
342
332
339
329
615
259
279
251
246
265
315
336
350
345
301
305
321
344
354
358
322
307
545
323
256
267
248
254
364
372
388
367
347
458
278
283
304
297
250
255
285
317
340
344
343
308
309
331
351
375
356
324
262
670
300
333
301
281
276
319
351
357
360
321
311
324
334
381
358
346
314
549
288
308
306
271
264
299
330
349
359
334
315
317
331
347
364
359
317
633
257
256
257
277
303
336
349
317
304
339
357
369
354
340
316
322
245
667
224
294
308
302
285
298
335
353
373
379
353
333
335
374
358
385
426
405
263
313
294
270
265
305
330
358
374
345
323
307
336
338
363
360
314
668
255
299
281
254
258
294
314
352
355
340
310
308
288
335
330
310
294
309
323
345
361
341
320
315
331
355
365
357
287
672
304
321
309
268
278
296
325
342
373
363
329
312
308
350
353
365
341
576
296
307
291
268
266
308
335
362
356
300
306
325
354
380
341
278
670
245
261
280
271
244
276
311
323
354
364
348
317
323
333
367
378
348
669
276
308
290
267
276
317
340
345
356
337
320
322
344
353
359
326
312
415
258
311
305
264
265
295
308
357
366
338
304
304
325
348
368
351
325
261
669
256
297
288
263
252
297
308
342
349
335
308
303
319
352
359
361
258
668
305
306
406
366
351
355
344
363
331
672
318
316
286
271
272
307
329
354
351
327
309
308
345
333
306
412
268
302
268
232
218
221
277
308
332
341
327
303
300
305
371
359
356
283
450
297
255
253
287
311
342
352
324
312
330
353
369
360
359
314
320
310
670
311
302
313
288
264
293
318
354
362
370
338
321
329
358
365
377
295
667
325
335
285
283
268
323
326
365
375
365
320
299
322
329
364
377
481
307
252
259
280
299
330
325
293
295
323
340
359
338
315
300
284
669
256
262
253
272
306
344
354
335
323
401
385
428
398
383
271
332
344
361
381
380
342
328
321
341
651
335
319
301
280
292
315
351
365
345
313
311
343
346
357
309
674
299
302
268
248
251
294
304
330
333
288
276
275
298
314
674
268
243
264
285
272
281
288
319
345
364
365
342
317
331
300
671
299
282
305
334
341
342
304
315
336
360
381
363
338
316
323
452
270
334
334
317
279
280
324
344
371
372
350
329
317
351
354
364
301
671
312
317
292
269
227
288
358
348
352
307
300
302
320
297
244
669
253
242
281
296
321
318
287
297
324
345
371
385
348
334
312
304
665
272
256
261
297
397
415
375
348
291
672
266
296
286
265
264
322
338
345
319
306
300
321
340
365
321
309
322
451
240
280
285
303
287
289
290
338
353
376
364
323
308
325
340
377
372
337
574
302
311
299
265
251
267
322
327
372
371
349
329
320
334
359
387
393
329
326
269
635
257
275
261
282
324
350
363
295
294
316
356
375
352
329
251
225
667
263
301
299
274
262
284
329
344
370
371
353
314
324
342
361
385
380
312
672
291
309
283
258
263
318
332
372
375
340
314
320
341
353
366
347
323
281
670
262
290
277
266
275
324
336
363
345
349
328
328
299
273
265
289
324
346
351
319
302
307
337
337
364
324
305
506
318
245
246
285
290
304
296
296
318
354
366
358
312
311
342
349
375
314
537
249
273
295
315
316
312
312
365
365
323
315
311
356
371
319
540
241
261
293
320
308
276
286
318
335
367
363
331
315
319
345
365
515
283
324
342
309
274
278
325
347
391
397
389
342
341
334
358
377
345
670
272
316
312
264
255
298
314
350
364
361
320
312
310
352
362
366
399
326
251
257
257
296
300
330
342
317
304
313
349
360
360
336
309
303
276
670
281
265
289
398
399
375
337
315
419
248
313
302
259
237
238
310
316
365
358
328
293
285
290
342
345
295
671
279
269
228
221
216
274
286
340
355
363
319
315
307
342
362
374
491
327
307
333
323
280
273
305
333
371
380
361
328
320
321
342
366
345
667
281
305
283
256
254
296
313
357
363
343
315
298
309
331
363
361
320
444
293
287
317
305
276
301
310
338
378
371
361
331
317
336
360
378
320
667
330
331
305
279
283
335
362
374
366
333
313
315
368
373
373
297
668
304
321
325
268
283
291
322
331
366
363
365
372
396
382
345
547
349
380
376
350
323
314
330
362
367
355
397
315
248
247
269
298
311
318
307
300
332
371
371
354
325
313
314
354
364
323
673
289
310
301
272
264
298
340
346
363
334
317
309
329
341
367
351
316
442
300
323
332
305
273
267
310
343
364
373
361
317
321
320
349
356
382
354
321
245
672
301
320
299
259
267
314
320
356
369
352
327
317
321
344
366
384
338
314
287
660
247
300
293
272
286
318
337
333
304
298
308
356
365
345
281
216
553
237
252
245
265
301
343
351
318
313
312
352
367
379
341
333
318
333
428
257
269
263
364
389
399
374
331
328
322
346
672
315
308
297
268
258
279
323
336
359
329
316
308
326
349
383
347
316
319
554
312
264
261
270
312
343
362
346
320
310
345
368
374
356
327
309
276
675
252
306
290
260
269
316
331
358
373
354
314
316
329
353
367
357
274
673
302
323
309
279
274
304
333
354
326
304
299
328
343
359
304
545
228
229
260
284
314
341
328
300
303
328
351
376
368
362
310
315
358
395
312
310
323
300
268
275
310
339
358
375
356
322
306
334
340
365
292
667
306
288
320
312
271
280
292
323
352
364
345
291
285
333
358
378
353
329
320
337
345
381
370
338
429
277
321
322
278
269
275
309
348
369
389
374
335
344
322
359
315
672
325
316
343
334
326
323
336
376
384
383
328
324
331
366
338
262
254
246
276
300
306
305
233
253
252
284
315
342
332
328
290
296
473
259
306
324
289
276
259
307
313
359
361
345
314
300
326
317
344
325
660
305
314
270
266
265
321
328
367
362
316
308
308
355
345
364
292
667
308
312
287
256
268
306
317
356
368
357
318
311
317
343
373
357
302
667
295
312
291
269
264
308
341
360
360
328
315
311
312
322
293
279
285
318
348
359
339
314
303
310
335
351
348
303
293
261
626
254
258
280
315
333
296
297
268
288
313
324
315
295
290
333
346
369
535
286
309
303
278
262
276
342
358
377
358
338
329
341
354
378
367
335
337
325
344
406
431
305
323
313
285
275
291
334
357
358
339
313
319
325
346
366
338
318
267
668
305
326
269
261
273
320
358
365
351
311
310
319
352
375
357
327
243
667
297
287
297
269
277
300
323
343
363
353
327
310
336
379
366
366
383
430
256
317
321
289
272
293
322
334
421
418
389
351
346
346
301
364
363
326
312
314
352
370
355
340
303
301
360
320
266
281
299
285
251
266
290
317
351
360
339
318
301
311
333
373
373
321
672
271
308
292
271
264
307
340
358
367
336
319
316
347
372
354
347
262
672
305
315
287
258
269
323
335
359
363
333
311
315
350
366
366
330
544
316
287
258
254
267
297
352
357
337
331
316
336
354
354
366
319
329
451
270
312
323
324
302
293
321
342
380
377
350
315
329
349
362
352
492
303
215
228
249
275
307
330
329
325
342
377
391
376
361
351
355
430
397
341
349
320
295
285
312
355
335
313
282
200
194
234
259
275
275
265
276
307
320
357
339
321
316
339
360
336
674
338
344
337
302
301
336
356
383
398
368
362
347
362
395
389
374
319
572
290
331
333
285
274
308
321
356
363
350
319
321
323
357
359
350
267
672
303
302
286
256
265
300
325
349
361
354
309
313
325
344
333
309
267
670
257
247
212
212
251
309
319
350
346
320
325
332
360
374
375
346
329
335
308
665
314
304
326
320
286
297
311
340
354
368
325
310
309
336
369
362
346
340
544
299
257
262
292
317
340
328
310
312
335
350
369
347
330
285
313
319
328
323
308
305
334
352
359
331
332
323
348
364
358
321
273
672
266
292
275
270
283
325
338
361
351
331
326
336
362
364
350
319
319
522
299
275
300
313
305
276
305
313
352
336
309
315
344
331
360
302
297
246
370
268
285
277
252
255
287
324
344
367
358
328
321
335
357
356
351
324
321
343
515
260
286
310
316
285
315
315
332
352
374
357
336
322
321
365
359
341
415
293
301
270
275
282
315
332
343
328
317
314
360
370
355
336
324
313
342
282
664
282
259
286
305
316
293
281
288
343
343
357
328
314
281
292
347
355
351
316
320
343
354
375
350
322
308
335
337
365
326
672
292
314
290
266
300
334
345
349
304
295
264
283
322
324
310
235
668
300
298
326
317
307
292
314
351
371
376
342
320
315
333
358
387
362
309
670
315
330
293
287
295
350
355
362
329
306
307
346
370
376
355
330
316
320
327
667
308
305
297
270
264
292
312
349
351
327
305
304
326
344
375
365
330
292
666
306
311
311
341
341
318
299
287
302
323
337
338
299
291
291
315
340
271
629
281
288
298
276
270
277
304
336
358
345
313
363
357
393
391
372
637
364
331
357
377
376
340
317
305
321
354
311
672
316
314
327
300
293
303
342
356
373
353
328
315
316
372
359
376
378
556
359
300
297
332
342
344
315
287
280
310
331
353
348
337
289
290
273
639
292
294
299
250
261
294
312
344
359
356
316
302
322
327
361
305
642
314
320
278
252
278
308
331
359
365
340
312
311
346
361
336
673
321
326
294
262
267
318
335
366
370
353
315
305
336
362
349
674
267
325
310
276
294
267
272
318
329
333
306
292
317
340
497
267
327
328
326
287
300
304
345
363
370
345
333
311
302
666
274
396
379
352
326
308
669
270
268
273
294
321
342
323
297
290
315
352
355
337
276
665
292
319
300
263
272
322
333
359
363
330
326
323
357
326
551
264
278
313
326
331
311
301
314
344
365
378
337
314
240
668
326
325
295
280
288
324
343
362
359
324
303
311
335
362
667
318
321
294
272
261
339
338
356
338
316
294
303
312
306
275
238
397
294
296
304
267
254
302
331
352
373
361
337
311
315
364
353
369
303
611
313
287
271
285
320
360
368
358
318
314
336
365
374
375
321
316
502
336
272
272
309
316
306
296
297
331
350
401
669
276
272
271
289
311
348
349
300
297
317
349
357
355
317
304
303
340
319
672
308
309
319
264
261
297
324
345
365
353
311
309
332
368
396
370
351
417
308
329
305
267
266
283
350
360
344
313
319
345
357
323
307
296
272
284
552
319
267
260
260
300
335
357
351
318
314
320
365
375
363
330
309
308
339
313
669
312
312
320
285
270
294
307
349
369
360
332
313
298
317
347
362
333
663
298
327
313
281
272
299
334
355
368
354
315
311
323
382
368
367
311
451
315
287
307
310
300
306
293
313
342
356
361
331
310
329
345
347
312
312
339
359
378
356
323
307
313
343
357
582
269
267
298
323
345
347
289
304
339
348
384
378
314
264
219
594
250
285
277
285
318
346
358
337
310
306
329
365
368
345
277
669
294
310
291
258
264
301
322
348
353
326
305
294
321
328
358
342
481
300
257
274
301
314
315
288
293
314
352
366
361
329
313
327
338
363
343
541
296
291
259
264
306
330
354
354
304
306
297
319
351
369
363
342
406
305
263
259
269
303
315
333
327
300
313
340
360
368
347
317
319
343
356
562
284
274
312
325
338
344
360
388
413
378
321
314
273
272
284
307
322
331
303
299
321
339
356
352
315
304
314
332
363
358
321
342
407
252
274
257
253
273
304
334
342
313
302
298
326
340
355
342
314
324
313
335
311
668
307
311
295
267
270
306
320
351
360
335
310
309
338
354
361
346
313
312
297
675
288
264
280
306
319
324
300
307
324
347
364
356
318
315
333
370
356
360
273
592
264
266
273
296
324
351
328
308
311
335
357
362
334
312
326
343
305
671
295
261
261
239
242
285
312
335
352
335
314
313
346
366
367
334
279
667
292
321
310
273
284
333
341
366
400
676
298
282
295
313
330
339
314
306
318
350
358
355
321
328
317
348
305
659
308
314
310
278
283
316
338
356
357
323
314
316
365
358
348
277
646
294
317
295
280
298
343
355
366
338
311
310
353
384
378
342
275
523
282
333
322
274
268
288
322
337
367
363
317
306
298
335
353
352
671
242
308
312
264
283
261
279
322
338
322
294
288
305
327
338
669
326
336
297
283
289
326
355
380
373
322
320
319
369
347
363
424
438
294
336
345
316
292
281
309
347
374
379
336
324
319
319
362
314
670
323
330
306
269
269
294
324
383
672
248
303
294
246
251
298
322
342
346
297
287
277
311
357
351
342
272
408
311
296
324
318
290
273
293
327
355
368
345
310
295
316
375
352
366
333
589
251
259
291
323
339
352
291
300
347
367
378
337
306
264
248
276
260
670
274
261
300
324
337
335
299
295
326
351
377
373
335
322
305
353
363
374
300
670
317
327
310
274
263
307
321
352
367
347
310
303
321
346
374
370
340
309
297
481
327
296
321
333
303
285
281
313
343
365
368
315
300
313
341
364
389
366
349
347
490
264
300
332
339
322
298
291
310
346
372
406
430
418
317
275
294
327
337
306
295
285
308
333
359
369
334
312
296
314
351
352
273
672
283
314
262
243
226
248
286
323
347
337
302
299
307
341
371
379
341
288
666
317
332
306
280
281
320
358
375
368
336
321
321
358
382
375
310
310
252
668
259
316
310
264
274
299
332
357
368
343
308
300
322
352
372
367
332
267
667
310
329
303
270
266
320
330
360
370
349
326
297
304
347
372
362
360
268
641
326
331
297
276
278
314
339
357
358
309
300
312
341
377
374
348
274
667
295
316
287
267
270
409
357
364
398
389
331
276
300
331
349
342
301
299
323
350
379
379
330
310
302
341
338
371
459
353
312
323
333
277
276
292
327
348
365
331
298
299
326
356
367
363
303
662
291
315
284
274
293
333
357
367
330
312
304
329
350
373
381
324
307
367
338
291
303
329
324
268
273
295
324
351
371
365
334
311
318
358
383
372
335
277
672
307
321
279
273
289
330
351
367
353
303
300
329
350
375
393
339
327
258
579
261
274
336
343
330
293
311
318
358
317
323
324
270
276
288
334
651
321
322
313
275
271
300
335
359
375
361
329
306
321
351
372
382
351
298
313
363
368
375
347
321
304
309
352
367
367
327
325
296
317
320
666
319
324
331
294
279
287
334
359
371
348
329
302
305
327
369
378
346
314
673
268
331
328
294
279
288
332
346
369
367
343
314
309
346
365
371
358
321
303
570
302
325
322
277
274
282
339
351
365
343
312
305
331
362
342
320
299
323
289
666
238
246
245
287
318
347
357
339
313
302
317
360
371
379
351
324
311
618
309
326
339
317
294
282
307
338
371
378
342
318
304
313
344
369
368
339
278
668
283
320
307
264
264
306
319
360
369
356
321
303
671
298
284
312
336
356
359
318
310
303
340
351
364
339
323
296
315
306
674
322
319
334
316
284
288
316
343
368
373
346
321
304
319
354
367
364
311
671
271
325
330
294
272
290
310
356
361
320
308
314
348
349
313
290
266
513
278
304
279
259
267
317
350
364
361
325
310
317
360
374
373
329
312
301
530
347
269
266
304
331
348
358
325
302
303
333
357
373
364
340
302
307
476
275
320
326
302
288
266
294
320
356
362
348
313
304
314
338
364
367
321
667
262
321
320
291
271
281
309
347
364
360
315
306
300
324
363
360
369
324
332
370
379
372
318
320
305
351
357
371
372
537
306
252
256
304
329
354
305
300
293
334
374
369
344
277
281
256
235
670
243
313
319
279
269
298
316
357
367
370
331
312
312
351
360
382
353
318
465
336
301
324
336
298
283
286
325
332
374
370
329
319
301
317
360
356
371
284
662
328
339
337
293
286
290
316
358
372
359
326
305
302
332
354
365
667
279
318
296
267
269
309
339
366
366
327
308
313
347
368
367
325
640
267
256
269
309
324
353
350
316
304
303
336
357
369
349
320
288
667
299
287
288
343
350
323
354
594
345
307
287
286
310
327
353
360
319
300
299
332
360
371
359
399
350
251
266
265
300
326
351
354
309
298
305
334
361
383
369
312
274
672
264
306
297
270
275
304
342
354
367
328
306
302
341
340
376
395
532
335
269
273
294
333
360
368
348
321
316
344
375
390
368
338
277
664
300
332
318
281
285
328
345
369
370
325
314
299
331
346
369
513
295
311
279
263
267
306
336
358
353
313
307
346
360
356
305
307
270
672
194
288
296
296
263
264
296
339
357
365
330
310
305
347
380
372
339
331
492
318
298
326
340
332
364
374
383
389
321
670
310
329
296
272
270
311
330
360
366
334
304
300
340
344
379
360
323
415
269
323
325
285
276
265
300
332
357
368
332
306
310
350
366
379
370
303
304
271
663
256
297
288
264
290
318
352
376
359
319
313
314
351
365
370
323
311
476
330
312
334
322
280
279
296
338
354
323
305
295
327
338
362
310
271
666
299
305
327
311
282
290
313
352
372
380
358
323
313
344
365
379
326
670
297
327
308
274
268
313
330
365
373
352
329
304
309
330
368
377
349
667
272
321
326
281
267
284
318
341
367
368
322
310
337
357
365
324
305
300
332
357
370
370
327
314
309
341
364
376
534
311
284
267
270
309
330
360
366
321
303
313
340
364
378
359
321
276
675
273
312
294
266
270
320
334
364
369
288
317
299
298
353
333
339
368
320
239
264
252
244
276
312
355
360
330
312
307
339
356
379
355
329
310
315
422
291
279
262
291
315
353
357
332
316
307
328
358
377
365
324
317
311
348
436
294
263
265
309
326
344
331
307
294
317
356
373
369
323
310
304
340
334
369
398
479
304
292
324
323
278
283
290
328
360
366
336
317
296
312
355
361
293
296
319
351
362
365
309
300
303
342
353
364
340
295
292
397
271
276
256
287
316
338
349
320
301
297
288
317
330
307
284
283
313
311
668
321
329
323
281
277
300
338
354
376
369
314
314
324
352
377
391
359
323
267
666
287
324
321
282
281
293
324
360
366
324
309
298
325
342
374
378
318
323
259
610
253
280
269
276
317
346
354
338
308
299
304
345
366
387
352
342
254
575
268
259
299
331
347
346
306
299
312
344
370
370
344
323
327
330
373
319
667
329
327
314
278
269
282
313
352
361
357
344
364
385
400
360
298
303
344
354
374
351
318
300
309
340
378
369
348
264
658
323
331
294
279
277
327
346
374
359
323
308
313
353
362
379
339
303
671
279
323
316
283
267
292
311
356
369
362
324
309
308
340
384
373
335
267
670
327
334
290
277
280
340
341
373
369
320
323
303
307
346
367
377
334
638
266
297
277
280
320
349
365
360
320
308
313
363
371
370
337
309
304
421
261
326
334
304
272
271
314
330
364
338
303
298
333
371
359
370
300
306
662
264
307
301
274
261
286
328
347
369
364
316
310
315
357
370
389
358
321
263
635
282
387
397
395
334
316
316
348
368
554
278
304
333
338
311
292
287
313
346
366
367
327
305
304
328
364
371
360
279
672
321
323
286
278
274
330
343
364
351
321
301
315
358
360
361
331
303
298
397
255
288
260
268
315
327
356
350
317
302
307
337
359
373
359
323
316
305
356
353
643
274
315
266
280
336
355
381
365
320
269
267
285
329
350
357
338
398
295
280
261
281
322
336
351
331
302
307
340
374
387
372
336
326
323
339
379
324
662
320
330
312
283
275
311
347
363
364
321
306
309
347
376
390
355
324
265
630
275
297
346
377
390
399
379
320
320
303
618
299
309
332
320
290
283
297
340
361
365
325
307
305
339
367
384
328
320
306
551
318
266
263
270
312
341
360
357
306
300
307
341
359
375
359
322
315
381
393
324
332
308
264
225
245
289
311
340
351
313
297
308
344
380
374
348
279
668
324
333
284
280
296
341
354
379
364
318
310
331
360
374
382
333
315
263
671
260
305
295
260
262
312
327
359
362
323
303
298
321
345
365
358
298
301
374
275
251
252
290
307
332
338
310
293
296
334
355
371
349
313
303
316
328
361
395
497
322
257
345
389
398
392
332
337
310
308
671
277
258
304
321
335
329
289
286
312
345
364
313
307
292
321
365
364
312
667
246
288
307
309
271
284
286
342
350
378
372
330
318
313
357
374
381
356
343
501
321
296
322
341
346
298
294
316
351
368
366
326
303
310
340
369
372
358
409
337
265
264
284
320
341
359
354
312
313
346
367
385
380
346
327
308
337
357
374
668
275
306
286
268
270
325
334
365
360
316
308
313
363
368
358
305
305
311
357
468
288
250
256
296
313
329
333
294
285
307
328
358
365
335
365
344
396
361
298
292
352
368
332
312
303
330
344
377
430
356
293
297
261
262
300
328
356
344
313
303
304
344
355
372
350
345
302
310
279
672
270
266
277
322
345
359
329
313
305
336
376
386
367
334
320
303
327
496
275
318
332
330
294
280
303
334
358
364
340
304
304
334
371
364
368
305
570
269
306
328
348
339
301
297
305
349
362
369
340
315
303
308
346
351
672
298
323
306
277
267
291
322
345
369
365
337
304
319
357
373
367
349
316
460
257
252
294
319
327
301
290
319
360
379
394
377
348
334
350
378
394
410
371
341
359
552
320
272
330
377
374
334
314
291
282
299
301
577
231
252
228
238
286
306
318
295
267
258
277
315
334
339
305
285
288
312
338
671
324
329
321
283
288
317
342
369
385
389
337
333
333
371
380
396
376
327
317
298
674
300
279
308
339
367
384
336
331
324
360
380
391
360
328
307
339
348
378
340
670
255
307
317
282
286
295
306
322
297
281
279
315
341
363
368
312
304
291
670
290
273
306
330
346
328
301
304
328
355
370
372
323
311
312
347
379
379
348
284
669
301
317
290
271
272
321
320
357
365
349
313
302
310
341
361
368
334
297
352
362
379
362
329
306
324
353
369
365
336
327
307
345
327
668
313
322
308
281
268
308
321
356
367
344
312
304
327
364
381
400
349
332
257
668
290
323
289
263
279
315
340
366
351
323
333
377
404
407
386
293
286
670
272
312
308
260
259
272
315
327
333
284
271
265
299
320
349
319
287
300
368
226
246
239
265
300
332
342
334
314
288
302
337
357
395
384
355
306
566
323
344
303
290
309
358
376
390
377
343
320
333
359
381
391
365
611
285
273
312
330
336
305
293
310
357
362
358
317
313
310
354
367
345
312
651
403
347
343
374
397
395
355
325
336
355
375
437
430
313
342
336
294
269
277
315
342
327
287
265
277
290
317
278
246
233
211
397
209
261
280
280
242
252
287
311
341
361
340
315
302
315
344
365
384
368
317
668
288
332
329
295
301
359
362
407
403
360
349
341
371
395
409
397
349
332
285
665
278
299
281
295
340
367
368
326
309
307
347
365
374
342
312
301
306
336
637
325
301
280
253
254
304
329
350
358
326
305
298
319
354
360
361
306
300
302
321
668
308
303
324
306
276
287
304
340
362
373
369
361
384
406
424
394
308
277
300
335
354
372
359
323
295
303
342
361
365
332
273
672
288
320
301
269
267
304
324
348
368
350
307
299
317
342
372
376
347
273
672
294
323
301
279
281
328
340
366
358
315
305
312
355
373
373
329
369
366
270
266
288
325
339
357
339
304
303
318
355
369
381
338
325
304
325
289
671
303
283
317
337
344
313
296
307
336
367
374
352
317
303
318
347
349
671
316
324
285
276
275
328
342
332
299
303
337
362
374
372
285
304
269
329
305
248
262
298
326
345
324
295
298
336
360
377
374
335
320
328
340
370
336
670
342
403
400
390
341
329
317
337
364
341
675
291
326
315
278
264
286
323
340
364
353
307
299
304
347
368
367
340
282
503
292
304
269
270
310
337
356
364
323
305
306
336
365
391
351
329
259
663
307
330
297
281
285
332
356
373
358
324
313
320
355
369
378
339
398
319
263
262
273
303
337
313
293
290
325
361
365
344
265
281
267
278
290
669
289
272
311
330
334
313
292
305
341
369
378
341
322
313
331
372
372
360
399
372
267
273
268
289
318
353
360
327
309
298
318
352
369
371
334
309
301
280
665
280
263
284
327
341
398
351
328
342
311
673
304
268
297
321
338
336
304
293
305
352
370
367
334
308
300
320
349
345
675
307
320
290
261
256
296
323
359
368
343
312
303
320
353
372
385
337
326
364
384
321
321
287
280
293
317
350
312
311
276
271
287
320
370
350
367
315
650
292
320
288
277
298
342
357
373
351
327
308
325
351
386
376
351
279
670
319
330
306
273
272
298
330
366
373
350
322
304
303
336
367
366
326
611
268
254
277
316
336
332
298
290
323
351
373
373
327
316
319
328
358
355
635
263
276
270
294
323
345
357
331
306
298
317
358
351
317
285
297
327
352
376
372
326
316
303
340
330
360
329
628
279
305
247
259
296
326
359
365
332
252
257
256
287
315
322
669
318
326
322
285
286
304
337
355
377
366
320
318
324
364
364
374
313
593
268
279
279
315
338
369
368
337
306
306
345
368
377
364
309
299
284
620
285
285
331
337
334
301
288
313
336
368
374
355
316
301
315
329
360
417
361
318
317
275
257
275
314
348
362
356
310
299
318
350
369
370
348
319
303
400
277
255
250
280
309
333
346
329
289
297
340
355
376
366
382
388
413
352
672
326
356
398
373
332
321
328
377
365
373
289
635
300
318
279
261
267
330
346
366
351
309
295
303
343
365
363
329
297
297
339
464
260
324
332
291
275
308
338
363
375
349
324
305
327
362
374
377
333
317
670
259
312
286
267
280
332
346
372
373
333
312
315
360
365
378
350
322
303
304
674
284
259
281
307
335
356
342
298
288
303
335
357
370
358
324
321
323
369
343
647
321
327
279
291
325
358
377
328
316
296
321
358
371
389
295
328
297
513
256
316
328
362
349
323
287
311
341
362
386
382
353
308
296
294
572
318
246
248
329
383
398
388
338
659
253
340
354
337
293
292
291
347
359
377
364
316
312
298
342
335
622
299
290
240
247
291
328
357
378
373
312
317
307
370
358
399
347
669
347
345
265
255
265
311
318
341
321
253
247
166
137
184
207
179
278
133
144
89
90
190
203
193
194
277
309
381
506
469
474
471
399
488
439
386
350
302
269
278
324
358
395
417
415
365
337
325
369
373
413
506
347
274
280
330
354
373
366
323
308
317
368
379
395
363
341
297
293
390
246
277
253
242
293
312
360
368
324
297
288
307
349
378
385
352
334
283
315
389
390
398
344
322
302
299
340
319
630
335
317
274
253
254
305
315
372
371
325
309
281
285
335
349
364
672
259
323
327
271
274
272
291
333
372
378
354
310
299
289
355
365
381
669
242
261
239
259
317
321
321
292
273
260
288
344
365
381
349
322
294
294
670
271
254
269
313
326
373
378
335
325
297
327
349
383
386
356
324
310
301
347
335
669
328
340
328
281
282
302
350
368
397
393
344
327
298
320
370
378
373
325
306
558
301
328
309
265
259
284
330
363
379
352
319
294
292
341
359
397
368
340
328
470
288
298
412
414
381
344
309
300
333
355
327
673
322
318
328
290
248
264
293
327
358
373
301
300
288
328
358
373
365
253
670
245
230
253
310
346
382
389
362
339
320
335
379
406
424
397
372
314
309
265
666
231
312
313
251
248
243
283
312
328
317
269
244
244
306
305
347
332
293
467
325
245
243
304
333
338
315
290
281
305
336
370
382
346
320
284
291
320
357
667
340
335
293
269
258
307
332
369
392
373
327
313
302
331
359
398
392
351
308
607
271
273
311
341
361
353
296
301
306
345
368
383
332
315
287
404
292
672
312
321
337
377
401
410
377
324
308
285
594
274
302
345
356
351
320
292
288
331
356
374
374
319
312
299
315
369
475
307
239
247
280
309
337
368
360
301
296
304
361
357
383
356
310
309
314
372
394
570
254
281
329
346
355
339
292
290
310
364
385
388
339
325
296
318
334
382
334
670
336
345
317
287
270
285
335
365
387
381
344
318
301
314
366
398
397
351
301
671
291
336
308
266
281
316
348
377
381
284
318
290
313
371
350
358
412
347
287
297
248
246
273
307
345
371
378
335
308
304
340
360
388
404
355
337
293
553
317
311
349
365
407
409
380
349
311
293
272
676
237
338
322
354
350
296
287
289
332
357
379
381
312
299
306
327
361
340
671
318
332
280
282
290
321
348
375
369
303
302
300
351
366
406
380
364
260
670
334
342
310
284
271
285
322
343
384
372
316
317
291
322
353
386
382
352
312
535
297
318
264
262
329
338
368
378
309
299
247
258
305
324
366
380
338
298
269
595
253
261
284
340
350
383
360
317
309
301
341
355
386
388
329
324
295
294
630
315
325
355
348
309
286
280
323
342
377
380
322
310
299
342
332
370
340
667
340
334
364
340
375
390
383
335
297
284
456
281
296
308
284
258
231
249
283
327
350
344
285
288
268
303
336
370
383
325
313
347
349
292
311
335
308
277
272
292
317
365
375
365
322
300
293
333
372
361
261
593
303
254
210
216
269
294
340
361
342
299
295
303
355
357
389
348
322
667
244
317
323
275
272
286
334
366
382
375
319
318
301
331
364
387
383
323
667
268
337
347
309
284
288
322
341
381
388
365
339
305
310
368
363
386
321
665
319
338
321
274
269
295
320
364
377
373
303
302
295
357
348
382
572
271
288
330
336
333
365
357
395
402
324
607
243
265
243
263
322
354
368
335
305
281
293
330
368
398
309
361
368
242
274
253
223
231
295
315
349
346
301
291
288
340
370
376
374
310
463
348
332
356
355
289
285
296
332
364
387
390
346
334
297
307
311
667
337
342
318
271
252
285
317
349
376
381
344
299
298
320
359
326
670
328
339
329
273
252
278
297
345
358
381
358
298
302
308
347
337
669
324
334
269
260
278
328
350
378
377
306
294
296
348
361
378
336
665
319
328
274
268
275
313
344
368
372
320
308
293
335
351
504
349
277
282
294
371
412
377
338
264
671
319
335
297
266
256
294
315
358
371
376
327
309
293
326
355
341
672
327
332
277
266
273
328
345
385
397
361
322
307
326
365
378
352
674
320
345
332
282
279
310
346
374
388
371
321
306
313
340
369
359
650
258
315
298
244
246
306
315
363
380
368
318
298
285
325
334
379
675
317
333
293
259
255
294
318
361
375
386
338
311
300
309
346
354
369
489
331
257
269
319
338
291
284
281
325
347
369
349
281
298
261
266
338
311
280
320
332
309
281
286
327
340
380
390
362
336
318
336
336
378
360
652
387
349
332
337
383
375
382
282
665
326
329
300
268
270
315
330
359
369
348
322
292
311
337
363
541
278
331
332
306
273
269
296
319
368
374
362
324
310
311
351
381
379
331
299
668
267
333
324
282
282
311
344
368
372
341
315
300
310
368
370
380
289
672
322
332
283
273
289
344
358
378
300
317
296
323
355
368
362
254
668
279
256
289
306
337
345
305
301
320
350
373
385
363
329
329
331
370
337
661
328
335
277
265
273
318
344
364
373
334
313
307
338
360
378
358
298
594
258
261
295
323
347
354
314
295
296
339
351
361
296
291
287
325
358
372
371
321
308
298
336
353
373
354
320
630
261
284
249
262
292
338
357
367
320
314
304
333
356
385
374
344
377
351
261
260
305
318
339
335
313
289
322
344
376
332
325
298
308
567
342
214
264
263
241
273
325
352
373
360
325
309
324
345
383
410
480
324
320
341
332
303
299
308
355
367
377
344
319
313
318
370
353
603
255
264
262
294
329
363
357
319
311
302
334
377
375
344
286
667
325
329
283
276
273
334
349
365
348
307
296
312
347
371
472
338
275
283
328
335
333
297
295
325
355
370
377
344
297
307
367
380
379
330
318
303
321
359
368
350
305
455
304
290
325
325
281
279
331
351
365
359
307
293
251
285
300
332
297
614
271
304
276
257
292
331
357
374
361
323
307
316
360
371
377
345
312
303
486
336
309
339
344
294
282
288
330
350
379
381
332
315
310
347
373
390
358
339
248
670
317
327
303
281
264
298
318
354
370
350
320
298
296
335
356
376
352
324
272
667
295
327
311
278
270
288
339
352
372
356
318
308
308
358
377
372
338
303
300
358
341
308
318
284
265
254
279
322
339
367
358
348
371
383
405
671
289
267
282
326
349
362
335
300
296
325
346
372
372
330
309
317
346
364
327
674
324
338
309
268
264
301
329
358
374
374
316
307
312
357
368
385
356
332
244
674
325
330
294
273
266
310
331
373
397
372
326
310
303
319
353
361
365
301
305
422
267
322
325
312
275
254
284
320
356
372
376
341
321
305
331
372
383
370
302
314
379
283
268
257
298
329
333
316
303
297
338
367
384
356
317
307
354
356
339
509
342
285
265
283
277
242
256
283
325
355
366
349
312
307
334
365
382
430
378
292
308
276
264
277
339
364
378
393
672
337
338
340
285
285
295
323
347
373
369
310
313
301
332
348
336
672
321
318
282
261
258
325
329
369
367
323
307
300
323
349
372
335
672
318
331
295
267
267
314
326
364
372
349
326
305
326
341
372
389
537
339
266
270
324
325
355
353
310
304
302
351
364
388
366
346
391
300
283
276
316
321
323
311
296
325
309
329
327
291
274
290
283
670
295
289
329
332
302
306
297
323
357
384
375
330
316
302
326
431
310
260
282
321
331
336
296
291
304
360
369
367
341
322
300
310
300
670
320
315
329
294
276
288
328
356
412
336
322
274
273
293
326
346
337
299
300
324
342
373
369
323
312
298
317
344
334
672
315
324
292
265
249
286
314
344
376
367
337
308
311
345
365
380
356
306
304
268
626
268
254
279
270
293
330
354
371
361
318
263
258
281
333
352
354
330
283
665
307
329
296
275
289
333
355
376
372
324
305
314
356
368
381
359
302
308
375
362
308
318
340
324
286
282
306
342
368
376
348
324
299
306
346
366
393
359
337
320
443
287
309
322
309
260
270
303
329
354
372
364
333
302
303
338
348
372
370
318
294
670
250
307
293
256
333
353
370
394
388
330
322
306
571
335
254
260
256
281
320
347
360
355
295
294
353
361
358
315
324
304
328
259
642
236
242
249
288
322
354
370
348
321
304
315
346
371
383
362
327
313
330
303
668
298
278
313
334
319
307
290
319
357
366
356
312
301
303
343
362
374
364
297
554
273
331
336
321
270
280
299
336
359
367
346
306
295
322
350
360
366
347
468
302
295
331
330
278
281
294
330
357
371
365
320
300
304
341
355
364
309
670
293
313
280
257
248
295
311
347
363
343
313
300
309
330
369
371
624
356
348
323
278
312
377
379
400
354
326
328
546
330
260
263
283
327
355
362
324
301
290
320
357
364
355
306
298
295
564
337
257
268
272
317
337
364
364
308
302
319
351
371
380
351
326
301
302
671
274
252
267
298
321
358
358
305
304
310
341
364
383
358
317
302
305
288
672
280
255
268
311
330
362
352
317
300
300
345
353
378
351
308
294
348
381
293
283
320
343
324
288
296
293
332
361
374
367
330
328
315
329
672
314
329
298
254
218
240
272
310
328
361
353
311
302
317
341
362
580
287
263
284
322
330
350
322
292
300
337
351
380
376
304
302
341
354
372
349
329
298
299
340
351
369
372
300
316
252
560
262
306
324
335
300
298
295
343
362
373
356
317
305
302
345
353
340
672
294
323
304
283
260
311
326
363
374
353
313
305
318
366
377
380
338
434
317
337
339
298
279
286
333
353
370
373
328
312
306
347
375
382
357
622
320
339
346
290
274
231
252
306
328
357
356
316
314
300
334
365
375
667
273
313
293
261
267
332
353
375
368
340
308
305
350
375
392
349
336
251
562
252
258
266
310
328
363
353
309
298
299
346
357
372
359
313
307
301
343
528
365
353
397
394
355
329
309
331
347
374
316
652
323
321
270
269
266
328
331
367
367
317
305
298
339
354
373
352
325
546
321
301
278
265
279
315
352
367
338
310
302
319
354
365
366
313
297
669
283
259
285
289
294
268
260
267
312
334
360
361
304
315
303
323
315
666
335
332
353
337
307
297
311
344
367
375
332
323
318
324
360
370
559
287
336
343
328
293
289
324
354
375
375
336
321
326
354
373
319
668
324
331
293
270
267
316
333
364
372
345
320
303
318
330
366
339
644
277
315
289
254
274
305
334
368
376
346
319
296
347
353
375
356
316
305
311
360
369
371
326
326
297
315
317
668
324
331
315
257
280
333
351
382
365
327
259
263
269
320
344
319
670
311
330
312
277
267
304
334
363
378
373
324
313
309
365
364
374
336
314
665
261
318
315
258
263
312
332
367
378
353
316
300
312
345
378
377
357
281
664
325
330
283
277
273
325
342
367
354
299
298
304
352
354
375
355
307
565
309
324
299
275
256
286
329
344
366
363
316
306
314
362
371
392
346
334
285
470
318
265
280
316
328
319
290
286
316
345
366
373
333
360
353
387
445
465
370
345
315
307
338
371
370
364
271
672
331
330
296
270
267
296
324
355
375
343
317
302
302
349
357
367
672
261
314
306
261
257
297
332
354
373
352
331
302
304
333
364
375
348
601
282
277
324
334
316
289
287
313
342
370
380
349
312
308
347
351
379
380
564
320
331
299
276
279
332
362
372
360
324
304
300
347
388
373
377
284
456
289
266
259
285
317
356
371
348
312
303
318
344
367
380
356
276
672
274
326
314
228
241
238
261
291
338
358
362
318
306
312
348
375
337
667
307
327
295
279
281
343
358
378
359
322
308
305
366
348
301
288
299
331
354
373
369
311
310
305
342
368
371
343
563
293
319
317
269
256
269
316
335
366
371
349
320
302
312
342
375
373
355
314
426
304
319
330
282
262
275
316
343
371
376
348
309
298
319
347
373
377
354
433
292
322
289
274
274
314
345
366
363
307
300
311
336
373
355
302
297
292
