423
284
275
256
296
316
385
368
402
419
375
342
301
284
276
359
314
343
370
670
292
355
365
272
348
383
342
302
289
300
383
366
410
417
386
323
317
671
231
361
342
364
311
305
260
272
336
340
413
412
356
331
294
288
304
371
669
395
337
330
245
226
222
263
281
371
346
384
388
360
340
296
295
315
339
672
338
349
309
275
262
295
332
353
371
364
348
325
322
374
374
369
280
670
327
329
296
277
282
330
341
316
292
277
304
337
304
216
502
212
196
196
240
280
309
337
333
319
308
333
374
410
391
366
500
344
303
318
417
423
462
434
422
327
635
306
305
301
321
349
374
365
328
324
332
360
366
343
315
480
309
319
301
281
275
306
345
356
346
313
307
322
356
358
356
421
304
306
285
281
305
327
348
353
328
320
333
357
359
367
332
465
335
316
338
313
305
292
318
347
366
373
342
345
318
335
344
564
279
282
311
323
341
296
302
334
357
409
361
338
169
233
243
262
246
236
264
305
329
353
367
334
313
321
352
358
370
325
516
294
309
276
271
277
320
349
353
337
303
299
307
328
352
345
317
290
298
272
667
260
251
269
298
327
344
323
427
407
357
339
300
669
276
269
276
302
320
332
309
290
296
331
347
346
314
300
302
351
334
357
312
542
254
295
309
323
307
300
297
327
351
373
361
333
320
317
344
361
382
340
320
261
670
279
317
257
278
317
349
378
364
328
216
273
288
266
272
321
329
351
338
505
347
296
313
336
349
325
311
320
358
368
376
349
324
324
354
365
373
332
321
275
670
244
278
244
218
237
356
320
323
342
369
370
326
313
288
302
328
350
356
335
491
304
227
244
271
290
312
339
320
307
303
337
353
376
366
336
314
308
424
288
295
286
382
553
467
394
343
307
267
261
363
389
290
100
501
143
170
174
246
277
322
337
318
300
296
341
370
363
335
326
356
368
391
521
222
254
269
234
230
256
331
324
380
393
368
344
328
337
361
394
392
347
336
318
668
292
279
292
332
351
348
308
304
318
347
364
378
346
326
320
320
353
332
665
334
332
289
274
271
304
331
344
362
324
300
294
309
344
365
341
315
621
252
234
245
271
299
341
347
294
301
306
325
352
369
349
309
292
302
336
668
302
294
308
277
261
285
320
347
364
372
329
333
315
338
356
393
366
365
672
367
313
324
321
362
382
355
341
298
320
283
674
262
297
258
264
309
326
345
332
299
293
310
343
350
345
292
299
304
356
663
329
312
294
262
254
285
310
339
358
346
323
305
316
362
374
369
330
313
304
295
674
288
273
314
326
334
315
299
316
351
373
366
338
306
305
326
363
366
323
308
467
312
301
327
326
281
276
292
334
342
360
338
310
301
311
346
361
360
332
300
297
305
647
311
320
331
299
294
303
344
351
325
306
334
328
356
273
288
258
256
248
667
241
281
264
264
291
329
355
359
330
318
321
349
375
372
341
397
359
334
340
356
376
357
328
315
312
336
351
350
326
294
300
288
663
311
310
342
313
294
279
269
293
313
341
347
308
294
311
310
352
347
627
256
285
271
280
336
364
374
383
343
330
336
365
368
409
393
335
470
321
322
319
300
271
261
310
318
344
349
325
336
348
349
358
313
286
261
604
287
301
342
294
289
272
296
330
330
337
182
214
249
265
249
569
235
257
270
306
320
361
368
337
333
345
366
384
374
345
323
336
443
287
291
270
277
285
319
347
342
315
317
330
351
368
336
312
304
325
316
670
297
277
315
312
466
460
444
407
349
329
292
627
271
267
289
300
331
337
291
300
300
333
350
341
310
297
300
327
348
491
329
257
256
281
307
328
348
325
314
330
348
361
358
315
311
315
336
358
319
671
297
318
314
244
285
307
332
362
348
302
153
223
222
218
259
288
283
668
323
343
336
287
287
330
347
381
398
394
347
333
337
358
395
400
363
318
667
295
313
283
274
301
349
361
374
338
305
300
313
346
369
381
336
312
452
288
316
326
289
264
254
290
314
350
382
369
307
306
291
324
345
372
334
669
295
324
308
260
263
287
325
356
405
397
672
282
287
260
275
315
359
357
321
291
281
296
332
355
390
355
326
356
344
242
241
266
315
322
299
285
297
308
335
240
257
295
267
253
223
499
279
319
297
271
283
335
355
385
404
389
345
333
332
357
372
352
667
319
340
317
280
274
301
338
359
384
359
317
304
308
327
354
330
669
319
332
307
260
260
284
322
352
373
361
320
308
305
359
350
377
456
330
320
330
311
262
268
289
320
371
376
355
312
306
309
358
360
350
276
665
308
326
298
274
268
313
339
358
372
345
324
306
316
369
358
363
382
415
401
422
357
365
328
314
321
349
359
330
672
259
308
303
264
255
289
295
336
370
367
346
311
303
317
353
346
367
304
615
296
296
266
273
306
355
373
365
332
312
308
340
367
378
336
321
256
584
267
274
295
324
351
357
322
311
314
347
373
378
342
328
314
328
312
672
321
325
299
272
264
305
324
359
377
360
328
315
312
337
357
362
308
672
281
328
315
280
279
320
344
369
370
332
323
315
327
368
373
356
288
667
260
318
318
291
301
256
240
271
284
275
258
281
324
347
348
666
279
318
303
276
299
358
372
384
362
335
327
344
342
392
368
332
316
322
328
364
372
339
314
300
298
337
340
348
584
285
292
317
311
267
283
313
324
353
360
333
315
297
328
330
357
316
671
323
335
293
277
287
342
349
378
370
330
316
319
360
361
369
308
674
318
326
314
272
280
307
322
353
373
370
323
318
320
353
359
369
672
271
304
272
259
274
327
339
308
292
300
360
339
347
235
260
243
668
281
302
320
300
291
323
341
376
395
370
340
335
345
379
379
372
297
666
317
333
300
288
294
333
353
373
367
332
315
308
338
370
362
335
304
488
306
267
272
304
316
340
434
423
376
295
671
310
315
266
257
277
317
339
353
351
315
299
303
332
354
348
346
441
273
314
304
277
259
276
321
337
362
349
320
311
319
357
378
369
322
264
664
302
332
313
282
285
321
331
373
325
321
298
315
336
355
529
182
180
232
256
282
305
300
295
314
349
367
378
358
338
325
351
373
594
277
281
297
316
343
367
341
324
329
363
379
369
338
312
312
309
667
323
326
310
283
280
306
337
360
363
324
310
308
352
359
355
282
666
310
328
307
274
279
319
355
360
359
316
312
314
369
354
359
273
666
312
318
302
427
426
391
343
328
361
502
258
305
312
291
263
283
292
318
345
351
323
304
301
333
343
361
286
250
244
264
295
322
328
295
200
226
236
263
296
326
346
356
311
310
283
667
281
288
291
308
339
372
367
339
329
337
358
379
366
326
313
317
328
670
320
309
310
267
264
299
326
340
361
351
313
309
329
350
370
359
326
264
667
280
312
288
269
271
313
328
360
372
344
319
306
322
350
390
374
344
283
597
267
272
260
293
332
366
353
307
304
306
332
365
378
371
303
308
261
567
275
320
333
295
278
284
320
344
367
414
388
262
284
250
254
314
327
355
364
315
299
290
314
358
356
351
252
673
291
278
315
323
325
294
298
327
365
380
360
325
323
327
362
334
674
338
342
317
293
283
311
333
375
382
349
321
307
332
355
368
317
673
323
337
316
289
279
306
329
368
374
358
327
313
320
342
362
324
674
303
326
322
276
280
299
335
365
375
354
324
311
318
371
362
371
457
312
305
319
290
269
268
325
345
371
370
336
327
320
342
375
340
272
665
339
325
222
257
272
247
256
297
321
340
352
325
321
333
367
399
469
324
315
338
333
314
300
318
344
377
673
349
338
293
272
275
325
338
353
352
326
297
303
334
360
356
337
252
434
274
252
257
260
306
346
349
320
308
318
355
361
363
316
321
316
341
476
283
323
318
289
279
301
356
364
366
329
316
323
338
371
379
324
312
258
664
265
312
303
270
286
331
341
367
361
323
312
314
347
360
360
311
674
285
280
250
275
320
342
360
268
277
286
260
266
307
320
347
296
670
320
329
328
285
293
314
347
365
386
382
356
328
333
357
366
374
325
666
300
320
284
278
305
337
358
365
328
310
319
349
364
369
337
312
276
667
254
370
366
372
382
391
361
342
309
316
350
504
250
296
298
285
263
274
292
326
351
345
309
302
313
333
354
364
327
310
631
271
264
282
314
327
332
311
312
348
365
375
336
326
316
333
373
367
370
298
271
254
276
297
329
335
299
205
231
243
262
296
324
347
344
304
311
314
351
659
329
325
325
279
272
308
330
357
375
373
333
320
327
346
370
389
354
339
450
266
305
318
306
269
267
299
325
343
367
337
313
314
335
364
379
358
320
292
579
290
326
327
289
277
307
327
357
368
346
314
307
330
372
354
363
301
503
283
323
432
422
371
350
327
323
330
674
308
296
310
292
268
276
294
325
347
354
337
307
290
305
334
352
230
271
261
242
266
300
319
250
267
260
250
280
315
351
375
355
331
299
601
288
312
337
344
348
329
325
350
385
383
359
327
329
335
358
337
668
301
326
310
277
272
310
316
363
371
352
332
308
310
343
351
348
666
260
307
298
269
264
304
331
356
355
324
304
300
324
341
360
344
288
667
299
314
303
273
271
314
336
362
370
350
327
314
322
348
381
362
345
295
527
306
296
270
271
296
334
355
357
318
309
312
340
460
447
292
301
349
363
344
316
302
311
338
350
355
316
319
303
327
374
412
307
301
316
281
262
278
308
326
357
357
323
315
311
345
353
377
356
317
272
674
298
331
316
297
292
326
338
371
362
333
315
311
346
369
370
331
291
672
285
322
311
277
277
321
339
371
375
343
320
316
335
365
374
351
297
671
281
322
312
284
279
314
337
357
375
355
321
308
318
360
377
371
339
469
313
289
321
325
298
272
293
313
340
356
331
314
308
356
359
359
248
267
444
240
277
276
257
274
329
351
368
362
328
320
335
362
380
370
327
304
663
401
378
358
365
387
383
364
330
307
294
673
249
288
264
247
265
313
327
350
336
304
297
309
334
371
354
333
315
510
307
276
306
318
311
299
301
331
366
372
357
328
318
334
343
363
319
670
322
335
303
289
296
346
366
377
355
320
317
324
354
363
359
292
671
300
328
313
284
283
320
344
362
372
348
324
317
344
352
295
672
284
227
235
212
222
283
306
332
357
353
319
318
315
363
371
379
668
281
286
277
300
326
354
359
324
315
322
344
373
370
334
331
312
323
668
301
294
325
331
305
302
309
328
367
367
336
317
313
320
365
362
340
313
319
328
350
369
367
329
301
299
329
332
351
286
671
303
299
301
263
271
304
329
352
364
340
317
311
329
352
382
359
324
288
497
313
264
271
298
317
355
357
325
313
319
356
360
318
320
310
341
328
670
248
238
274
288
291
280
284
328
351
364
363
327
318
330
357
373
361
623
290
291
332
333
304
303
317
336
364
374
357
329
318
318
358
349
363
382
488
283
286
319
313
278
289
301
331
362
360
324
310
311
333
368
360
326
252
660
309
314
302
274
280
317
339
361
348
320
307
314
345
368
349
314
273
351
354
363
389
389
354
333
316
315
342
344
352
438
296
313
290
268
263
284
324
347
358
325
308
321
343
349
311
312
313
667
216
201
217
247
287
330
343
333
311
311
337
354
373
359
319
314
292
670
292
276
302
322
332
325
306
321
345
367
361
319
310
310
347
358
348
667
286
312
289
260
274
314
335
359
365
324
309
311
338
352
355
324
289
599
271
268
302
321
332
318
297
312
339
357
365
337
308
329
330
361
411
367
294
296
268
260
286
331
351
350
317
307
321
347
363
372
323
312
243
661
287
314
299
263
280
428
367
329
295
271
270
305
314
321
316
303
301
336
359
357
335
321
297
301
315
671
304
284
311
294
277
289
309
331
357
364
325
317
331
324
357
328
623
272
282
265
277
311
344
356
361
323
310
322
339
377
369
340
483
330
288
302
341
331
313
301
300
326
349
366
345
313
302
314
340
325
671
331
336
309
288
294
320
352
368
370
327
320
309
333
344
359
516
325
271
280
285
311
332
357
355
318
312
320
359
379
360
247
596
288
293
265
199
207
264
274
312
332
325
293
296
325
335
656
316
326
309
281
298
339
349
369
364
340
321
327
366
369
362
348
325
324
353
377
370
347
314
308
294
651
293
294
326
334
311
297
302
335
358
363
324
310
301
316
480
273
314
308
271
264
283
332
342
361
349
320
308
343
339
362
315
539
257
302
316
313
279
289
307
331
363
359
330
330
315
337
301
663
292
292
326
339
327
310
304
325
339
366
363
325
309
318
639
311
316
271
202
216
235
260
299
331
340
317
304
314
331
349
506
292
327
316
294
293
326
354
369
366
339
318
322
349
387
362
365
305
481
321
271
279
300
324
348
324
298
305
322
347
362
350
330
300
312
323
407
390
397
358
331
324
353
377
362
351
259
564
250
247
268
300
328
347
325
298
301
335
351
361
346
311
280
670
258
302
279
272
295
333
361
381
377
327
322
330
375
376
373
584
319
344
345
305
287
327
341
367
366
303
289
228
233
297
533
249
216
237
266
300
334
354
347
314
300
312
341
383
381
347
668
260
316
305
260
263
333
353
378
399
357
329
318
292
330
336
661
320
332
322
272
293
292
335
361
375
367
353
301
296
282
667
271
250
265
301
336
358
363
309
295
304
364
342
363
456
327
276
292
321
320
290
291
386
673
300
272
273
285
334
361
344
313
295
300
333
359
359
302
674
309
320
304
261
252
287
325
355
355
308
308
307
331
554
193
221
215
239
282
316
354
359
320
318
310
365
355
377
367
465
306
330
345
321
283
296
312
338
369
383
367
341
302
303
476
276
308
327
318
266
256
289
304
351
364
375
346
327
303
317
309
666
322
324
300
261
264
314
333
369
375
362
323
301
313
336
345
667
328
337
311
276
269
294
326
359
370
361
329
303
324
309
337
366
505
271
327
326
283
274
284
341
350
367
337
304
305
305
356
448
387
321
342
313
303
307
339
363
351
322
295
296
327
328
670
317
329
307
268
267
299
324
352
379
359
314
308
315
352
371
392
334
333
263
651
284
317
295
265
279
321
349
376
374
327
318
325
340
390
414
399
362
272
659
254
293
323
374
350
358
334
302
268
324
297
328
393
381
432
399
325
406
383
262
350
358
317
292
270
279
347
368
422
416
408
321
344
284
301
273
354
534
235
229
294
297
364
367
352
295
272
325
335
411
404
370
306
278
128
663
218
235
195
214
302
293
371
380
395
338
316
287
279
340
321
383
388
658
212
343
339
376
401
420
365
374
294
305
285
481
330
245
228
276
308
368
381
364
289
276
272
311
326
382
399
371
303
638
263
313
287
241
216
253
290
326
378
399
383
347
303
292
320
351
404
425
618
273
270
313
313
294
291
262
298
341
359
413
419
368
361
293
281
221
605
205
289
343
329
298
264
286
349
350
336
283
276
313
369
623
273
266
204
212
192
249
293
326
373
395
404
359
349
262
271
258
665
259
247
243
319
349
402
394
406
351
354
297
284
278
312
668
299
258
311
335
357
359
278
305
275
267
326
347
390
366
667
318
375
354
423
420
380
343
617
228
235
239
333
298
358
357
397
362
324
288
257
276
526
338
291
306
354
335
315
280
269
300
342
383
378
378
239
538
318
230
218
249
313
360
396
412
383
352
286
290
521
306
246
258
296
346
314
297
250
248
236
309
280
326
331
663
362
333
285
272
262
317
346
407
418
409
340
345
304
273
306
336
618
332
261
264
216
232
270
379
355
405
432
406
340
339
308
303
667
263
247
247
290
304
348
353
317
308
307
353
365
377
346
311
274
667
243
296
269
246
248
316
327
368
380
345
307
298
317
297
373
357
358
315
311
301
330
358
371
371
327
307
287
296
331
368
364
335
261
659
316
326
298
245
275
299
348
366
375
325
242
266
238
251
281
331
328
365
277
667
327
337
329
288
295
295
323
366
388
388
344
332
304
308
335
380
384
350
313
299
256
669
248
325
328
291
270
291
306
341
367
380
356
315
297
304
349
357
381
384
307
302
291
587
323
284
274
248
280
335
347
367
354
298
299
297
352
360
369
345
317
320
302
345
346
651
275
310
283
252
258
288
342
350
378
364
331
306
299
331
367
376
365
329
316
423
672
350
316
305
327
358
372
362
318
307
295
320
360
374
362
321
669
253
327
330
292
272
280
290
332
371
383
351
318
300
301
342
366
376
355
304
300
260
669
251
314
314
266
272
322
330
378
383
362
321
306
320
363
373
381
347
306
288
667
249
306
285
261
254
308
316
370
372
376
317
308
308
357
369
386
361
329
298
309
282
670
278
256
266
299
346
377
363
327
310
312
351
377
387
360
334
312
309
350
361
375
240
294
291
243
249
280
294
280
280
238
246
268
312
335
366
368
314
305
328
350
380
603
277
268
293
315
345
365
437
427
373
355
334
329
370
342
654
304
316
289
236
248
284
312
342
359
361
316
294
291
329
353
368
350
328
293
317
317
670
318
322
322
275
273
306
334
369
380
357
316
310
319
358
370
382
351
310
297
283
670
282
267
291
312
351
369
360
327
304
308
331
366
372
364
329
297
307
333
372
672
320
332
298
259
300
345
361
385
362
326
218
264
257
252
292
314
369
362
377
440
353
279
287
256
264
301
340
373
389
365
325
310
325
352
382
381
339
310
310
346
364
352
668
302
334
305
272
275
293
324
355
371
365
317
308
300
670
294
283
280
320
363
370
354
317
308
299
321
346
363
340
289
285
291
295
675
281
242
263
311
332
352
316
296
295
327
345
364
345
306
297
316
354
360
377
292
674
327
334
307
269
270
299
320
370
356
324
304
298
341
338
370
289
302
460
295
224
235
254
298
322
358
372
358
315
310
330
368
387
394
354
317
276
669
262
321
318
282
276
313
339
364
379
352
322
300
315
332
377
372
349
666
268
328
334
285
280
283
344
355
381
358
318
309
311
350
372
375
320
292
669
256
330
338
316
297
280
321
335
377
374
336
325
294
323
343
369
373
350
328
304
302
352
370
373
334
323
302
285
323
342
594
257
271
242
268
322
356
347
308
293
297
355
335
350
272
278
257
617
221
301
321
310
278
283
323
341
376
386
360
333
312
334
353
368
333
663
301
339
335
300
283
306
338
367
388
383
351
324
336
350
372
342
665
342
347
279
250
262
307
321
330
359
341
304
300
381
354
383
669
301
335
298
221
244
228
251
343
289
296
388
345
334
386
353
671
268
366
337
353
327
315
249
248
285
383
349
375
393
423
340
649
209
278
323
343
370
339
280
295
407
341
651
261
237
246
382
268
269
295
322
338
374
360
313
302
298
317
355
329
658
325
329
294
263
264
312
327
366
375
336
310
267
277
321
354
364
382
302
625
314
305
279
261
279
350
358
387
371
318
291
276
305
363
421
400
411
399
248
416
322
333
382
378
328
277
279
228
223
305
249
298
362
305
307
362
365
328
452
362
349
327
273
302
312
321
340
371
363
336
312
306
369
358
360
354
302
503
309
279
282
321
347
313
292
270
292
292
350
291
286
270
263
224
617
263
319
316
331
340
362
372
342
331
315
338
367
379
365
307
388
311
324
306
303
347
361
380
332
329
290
264
617
309
315
369
370
362
337
320
335
381
392
402
385
353
327
299
242
673
346
243
277
238
245
252
292
323
346
344
284
267
288
327
346
575
284
221
226
254
297
318
353
367
320
309
320
351
386
347
361
480
367
315
341
363
337
292
296
327
355
391
412
400
346
291
245
672
253
310
232
246
243
237
281
302
337
352
355
321
298
244
670
288
321
357
350
357
402
419
440
431
378
336
330
349
364
668
349
333
266
275
258
311
336
392
392
403
333
342
288
283
356
273
276
313
307
287
463
348
262
510
341
254
300
305
279
266
322
379
417
434
361
420
413
562
368
339
237
265
302
295
318
355
358
405
370
351
281
560
295
229
325
320
310
306
291
320
350
363
405
395
340
381
461
142
361
236
359
416
545
411
169
257
311
444
441
329
225
173
191
280
221
226
313
331
368
393
389
273
375
451
474
373
417
431
358
366
291
265
283
323
358
385
404
355
324
352
346
329
352
382
355
184
339
337
397
315
387
483
343
277
322
279
238
191
202
292
241
487
366
296
279
336
365
340
371
321
267
276
304
407
289
385
368
283
294
279
336
397
343
364
394
357
310
305
314
370
381
409
377
292
348
336
497
260
317
225
318
303
317
572
342
269
241
283
246
340
304
354
294
372
526
268
190
225
296
344
319
246
402
263
362
482
425
375
410
419
304
408
415
397
295
386
373
667
220
340
239
231
276
313
348
386
396
316
347
307
274
279
339
344
413
421
388
346
323
252
668
282
347
353
334
295
287
309
339
362
380
351
321
284
296
341
355
383
387
311
318
484
338
284
288
338
340
299
286
268
287
334
348
356
342
309
297
309
335
356
366
311
313
287
501
352
350
317
295
303
354
369
373
319
316
288
291
338
333
368
353
581
293
332
344
306
295
276
296
336
361
372
343
301
295
311
350
371
392
363
316
270
671
303
339
335
293
280
294
325
362
378
352
323
295
302
343
360
386
362
335
295
289
523
339
280
283
332
349
351
302
285
307
339
363
393
391
334
332
306
331
369
362
366
273
670
331
336
287
271
272
317
340
372
388
367
327
304
308
346
370
400
382
344
262
648
246
311
324
299
285
225
239
303
316
312
271
269
291
314
345
350
666
283
333
327
269
275
293
327
368
389
375
333
669
305
312
288
299
347
367
366
309
304
294
327
350
384
379
301
321
460
336
322
338
302
293
273
313
334
368
374
341
312
295
311
382
363
380
315
661
326
338
300
288
274
325
342
377
385
350
336
292
310
360
352
378
380
542
327
257
262
258
307
335
360
355
304
302
290
334
359
380
337
310
284
294
648
269
264
329
343
353
314
309
222
221
229
274
320
357
367
322
284
287
436
312
358
356
287
317
271
260
307
335
384
395
386
324
318
322
336
394
354
653
314
321
249
249
268
337
319
358
379
397
364
303
295
306
329
378
507
332
325
360
380
413
397
344
314
303
283
316
310
671
332
354
348
297
278
250
262
312
334
385
391
339
320
301
268
298
294
667
332
338
368
334
302
286
279
357
357
401
403
338
338
285
286
321
637
353
242
327
345
330
272
285
214
228
284
322
353
382
337
301
308
456
278
341
351
358
308
300
283
311
352
386
397
373
329
296
274
280
639
307
316
358
354
289
289
271
292
329
367
391
379
330
294
268
224
666
295
347
332
272
290
269
278
329
348
391
401
381
344
282
279
421
258
350
355
316
296
252
263
288
347
365
396
379
322
390
305
316
286
303
350
381
395
353
306
288
271
286
324
359
391
440
308
333
336
268
266
242
288
371
340
376
389
360
331
239
251
161
416
269
200
217
259
302
365
376
391
347
333
294
303
371
368
403
397
372
562
360
289
284
260
278
329
351
389
394
323
322
276
281
346
352
384
376
301
411
350
353
311
290
245
253
307
312
391
386
370
303
326
289
284
290
359
399
465
340
269
250
304
324
367
378
343
304
280
283
341
342
389
395
338
314
247
667
294
332
300
261
245
279
315
359
378
401
364
348
288
293
280
316
356
479
417
352
404
399
357
312
289
269
280
349
595
326
237
294
296
231
248
287
340
346
390
388
326
323
276
287
345
362
406
465
346
304
324
351
351
289
267
276
325
345
386
393
362
318
293
286
339
511
254
290
328
355
367
315
298
261
268
351
350
387
380
338
290
273
251
589
244
255
326
315
356
370
349
314
280
267
321
322
380
383
348
290
672
288
343
339
247
295
290
258
286
342
340
389
383
309
316
269
278
506
352
333
333
269
272
256
319
280
280
304
271
243
232
296
308
359
345
666
316
350
330
283
268
295
319
377
380
386
335
405
352
338
264
263
316
330
373
385
369
309
308
264
261
331
522
252
222
274
285
338
351
334
278
270
274
342
339
386
395
313
337
271
426
322
284
307
338
351
295
283
259
286
340
342
390
380
328
290
272
239
669
258
347
359
328
296
268
272
340
322
372
378
372
307
291
268
276
672
262
235
243
281
322
356
316
282
258
273
339
322
359
288
275
669
292
318
316
248
266
261
303
350
382
398
358
326
298
294
331
365
511
279
342
342
256
294
262
263
299
332
372
385
386
296
336
303
275
288
322
666
325
322
359
317
304
264
270
341
340
546
322
272
277
321
332
356
351
280
268
274
318
355
373
399
340
304
273
442
275
335
341
305
268
276
272
308
327
388
399
362
326
288
280
276
672
270
239
258
291
328
374
394
381
325
314
280
348
353
385
370
638
243
155
160
250
273
325
346
361
324
291
273
305
358
355
388
351
665
319
348
299
263
256
294
316
373
370
397
341
303
290
302
361
654
364
300
287
240
247
286
328
349
393
395
328
310
283
301
325
361
397
487
329
233
249
239
295
330
369
382
367
315
294
280
333
378
377
385
304
663
348
358
326
294
252
377
343
301
264
561
311
337
307
244
243
262
314
335
371
372
322
289
264
280
317
348
525
242
288
328
327
266
280
274
335
342
300
309
300
258
254
254
336
366
462
302
244
257
303
341
360
391
382
328
300
292
343
354
401
398
380
300
636
277
309
272
262
273
332
351
390
394
335
331
283
283
333
348
383
381
648
240
285
271
240
249
308
316
378
381
336
317
281
282
339
334
380
386
340
321
581
283
305
338
322
268
286
263
282
331
352
389
374
319
324
282
280
334
334
384
345
666
293
337
329
278
270
272
343
346
391
421
370
672
256
264
233
260
333
333
383
380
320
321
275
273
325
343
400
386
355
298
446
338
317
346
352
283
283
272
317
337
374
394
384
306
297
280
320
354
358
667
325
312
264
252
264
323
324
385
391
364
307
291
288
331
343
380
368
671
256
344
361
330
296
286
281
334
355
389
383
331
312
289
297
358
494
235
324
282
299
348
370
375
305
311
282
301
361
356
396
389
302
339
551
326
327
242
246
270
332
350
393
348
309
277
286
359
330
336
302
527
195
208
274
268
329
350
383
378
299
306
292
331
361
409
397
393
254
458
238
454
349
335
315
345
381
387
392
280
407
332
334
316
257
244
247
306
311
376
384
337
299
290
294
367
351
396
361
614
243
240
256
302
331
378
389
356
317
299
278
315
347
387
392
337
571
279
327
344
348
278
291
272
285
332
352
393
399
340
320
294
285
324
513
291
272
311
330
359
360
289
281
284
347
342
329
266
276
290
359
311
667
223
189
199
236
292
317
374
394
375
323
313
300
334
371
392
398
396
434
259
349
370
338
300
299
289
362
366
402
395
352
330
296
288
332
336
669
343
336
304
271
246
278
310
355
366
380
445
672
279
258
272
333
336
378
372
313
315
270
287
332
350
383
389
338
310
256
654
319
317
248
259
257
321
327
386
391
355
299
303
289
348
383
385
389
254
628
332
345
299
282
259
286
331
353
398
316
338
302
288
283
333
313
294
429
271
190
211
247
291
320
377
386
376
330
306
304
346
358
403
410
386
316
319
367
357
337
360
345
293
281
281
343
341
390
398
338
320
286
282
339
340
390
388
583
304
329
345
312
286
266
267
338
350
390
386
329
329
283
284
353
347
378
664
282
339
345
280
293
265
280
337
338
388
395
396
314
307
272
285
338
347
382
359
305
292
274
310
360
375
382
322
312
265
274
390
250
273
238
261
307
340
364
371
321
268
186
198
215
269
296
337
373
369
306
246
577
255
276
255
249
303
330
366
400
390
312
332
295
293
341
366
410
402
343
329
292
451
339
360
344
290
281
261
338
316
359
381
388
344
346
287
280
324
337
382
376
313
658
307
309
240
250
244
288
320
350
374
364
297
281
275
320
353
367
375
336
306
257
669
239
341
349
377
356
284
309
287
283
342
364
397
391
316
349
303
283
245
652
232
298
359
343
292
317
348
370
320
672
323
318
312
235
272
274
269
317
324
376
377
319
318
277
313
315
366
471
286
229
226
275
293
340
362
365
306
301
276
324
349
384
399
346
349
293
298
441
237
335
316
355
360
298
305
288
288
345
344
382
364
310
309
308
356
333
669
340
345
318
290
268
275
312
345
378
356
314
299
288
312
341
367
328
674
311
337
325
274
272
264
302
344
380
373
320
333
287
290
296
351
315
674
318
305
277
262
281
302
359
285
274
302
288
246
240
292
312
337
668
339
348
306
280
288
329
342
387
395
367
332
304
619
275
273
318
349
366
347
304
288
260
307
316
349
358
324
291
270
219
674
294
314
298
259
252
277
305
338
350
358
297
302
297
336
358
371
359
310
670
262
324
330
284
274
286
339
351
377
367
321
304
304
345
365
375
362
268
575
277
251
261
288
335
350
334
303
284
296
318
359
366
314
311
288
300
500
211
240
284
320
327
333
193
273
291
250
257
264
304
333
359
360
313
417
272
321
327
302
276
278
308
331
369
366
338
309
308
338
359
383
374
314
312
275
667
260
274
260
288
338
348
346
299
292
291
335
357
356
318
342
297
298
341
350
364
317
309
283
297
318
344
375
329
312
219
664
280
250
276
315
334
319
294
280
301
339
359
361
308
298
299
323
349
335
672
318
322
303
292
270
294
344
360
369
349
323
300
304
366
374
341
313
281
667
181
228
261
294
320
298
273
282
321
336
370
378
324
303
311
346
348
383
320
663
330
322
299
269
267
302
323
355
366
331
311
301
312
345
366
360
319
288
294
455
257
304
309
293
271
262
281
325
354
357
321
299
295
312
341
370
356
315
304
289
316
473
246
305
309
322
301
279
293
318
355
362
355
426
327
671
330
335
275
261
268
313
329
348
341
285
287
300
333
361
362
348
277
278
248
669
228
336
336
335
306
278
300
248
262
296
287
261
256
286
383
235
264
246
267
293
327
360
364
331
317
314
353
361
390
363
333
316
319
353
534
282
289
319
340
337
294
280
295
324
352
366
337
303
297
311
344
358
368
633
255
263
251
279
303
346
351
329
306
292
326
353
368
380
319
317
235
576
239
246
259
299
328
342
345
302
283
306
327
356
378
347
324
243
667
309
327
314
277
266
285
325
337
352
322
291
291
316
344
445
457
346
336
304
301
323
349
360
360
318
285
293
270
673
249
301
286
250
273
287
348
370
369
323
313
292
308
345
366
369
337
294
674
271
323
341
325
284
299
278
329
343
378
390
365
341
313
312
372
355
378
329
673
325
333
306
268
271
308
315
371
371
365
318
299
318
351
374
400
374
336
338
554
339
259
271
284
330
357
373
355
328
304
300
343
366
381
370
299
320
323
508
296
270
308
315
347
342
291
286
309
361
365
348
303
329
309
318
245
669
208
260
279
258
264
324
341
371
373
327
325
318
341
374
406
377
353
266
667
381
408
377
339
312
314
362
350
368
288
670
314
310
310
273
260
282
320
352
362
336
308
290
306
331
366
355
298
284
670
257
312
304
270
264
310
328
356
373
356
325
307
308
356
362
370
337
319
304
597
298
314
336
324
285
281
309
342
382
391
365
335
310
313
343
378
400
353
314
260
673
309
349
331
290
300
346
356
354
328
286
282
238
254
301
318
315
384
249
305
316
266
252
263
305
329
367
377
365
327
311
320
374
374
407
386
329
546
301
354
360
331
298
273
283
358
355
388
377
329
304
281
298
374
338
375
410
481
430
338
344
321
363
393
406
360
343
322
451
271
298
329
345
318
266
264
278
319
349
367
355
282
284
293
327
355
559
254
263
304
335
352
344
293
283
299
338
352
383
377
312
318
306
349
355
672
296
265
256
276
306
336
357
277
292
282
257
256
306
326
358
372
358
530
338
266
280
289
325
352
379
372
323
313
303
335
356
376
382
316
314
406
282
332
323
269
274
274
330
354
365
344
301
295
302
356
362
358
314
305
297
665
260
261
271
316
332
340
317
299
290
320
359
365
347
316
304
323
327
363
331
624
256
284
272
272
385
369
398
392
353
310
672
267
314
304
278
269
309
317
345
343
306
294
295
341
354
377
339
315
613
264
271
318
316
291
206
241
251
246
294
310
342
354
330
321
309
338
666
331
324
331
299
288
300
337
353
369
365
332
319
322
353
370
371
325
307
666
264
300
287
272
292
326
343
359
342
320
311
328
364
369
370
317
314
273
664
266
290
273
285
318
340
350
332
310
307
336
359
363
356
300
302
275
667
282
265
284
312
337
351
319
302
313
336
358
361
333
313
309
329
354
391
455
304
286
316
324
308
284
289
316
457
407
672
272
317
299
278
299
326
347
358
342
310
305
333
359
374
340
323
273
597
266
270
299
320
339
350
316
301
313
337
351
360
333
328
310
342
328
672
312
318
303
273
277
323
339
358
350
322
305
323
354
368
346
323
309
324
509
272
299
318
331
305
279
298
317
351
364
365
319
314
337
351
377
380
329
325
274
670
267
307
303
288
308
333
358
373
356
325
316
326
350
366
391
345
323
268
668
293
322
306
283
303
336
344
331
323
300
313
253
256
291
302
258
267
250
665
252
280
274
288
342
362
367
355
320
308
345
380
409
394
301
305
285
317
316
370
372
333
312
291
294
347
347
355
315
293
276
400
244
301
292
255
255
288
333
350
362
337
303
295
309
351
372
374
334
298
290
273
662
250
252
269
312
333
357
366
322
298
301
337
353
383
375
330
327
303
344
301
671
301
270
307
329
358
375
354
302
310
326
347
375
385
371
330
293
313
336
667
350
303
250
244
203
221
268
283
324
352
357
304
307
290
327
335
378
346
667
328
335
294
274
296
320
357
367
331
301
299
333
363
375
378
334
319
300
331
327
667
329
322
290
263
267
296
319
351
363
411
396
627
308
288
314
343
355
340
285
273
292
329
349
366
336
298
282
306
347
347
363
304
557
254
283
306
340
356
336
312
280
294
348
361
385
381
340
318
303
337
349
377
358
671
271
325
333
290
298
344
357
368
348
295
293
261
280
306
307
266
271
287
335
351
666
332
356
352
307
293
306
360
370
407
417
356
352
296
283
302
371
361
392
406
326
667
338
342
261
277
274
304
359
348
371
372
295
278
283
335
348
401
384
383
270
670
326
340
342
278
295
268
283
326
340
380
377
313
313
280
299
352
348
374
316
572
235
428
407
408
326
336
300
320
333
370
389
558
298
321
301
276
256
289
302
357
358
354
283
298
266
320
337
354
667
278
270
204
204
185
248
268
331
336
371
368
313
294
303
372
345
372
465
312
253
253
276
313
357
389
379
341
310
301
312
351
389
395
351
329
286
665
255
341
346
343
284
291
293
357
359
395
386
315
332
309
323
365
348
668
319
342
322
263
270
311
319
374
372
358
308
284
292
316
352
346
667
298
333
313
250
246
288
325
344
381
382
321
297
286
324
323
372
445
366
329
332
275
256
254
307
319
368
444
442
644
342
305
271
264
301
331
361
384
371
300
321
286
280
332
342
373
652
277
314
287
256
267
317
336
373
384
351
313
286
307
329
380
376
366
410
321
274
251
252
311
311
366
376
352
323
289
312
357
368
388
370
333
300
287
294
668
292
267
302
333
365
376
346
305
288
293
335
360
380
382
320
300
290
320
671
330
323
354
341
292
290
291
342
357
374
353
303
299
321
347
370
380
492
359
306
318
352
319
299
301
351
363
365
312
294
291
256
291
299
322
324
496
305
282
335
361
360
313
300
292
338
357
392
393
343
327
323
334
400
389
322
319
301
324
344
370
379
323
311
282
301
297
670
311
308
344
315
293
272
284
320
355
366
362
304
308
309
323
365
352
619
263
288
266
281
324
349
380
383
320
317
301
328
353
379
386
333
311
673
267
346
348
317
288
283
300
341
364
376
348
318
299
293
353
336
377
333
671
337
340
289
281
315
355
364
350
321
291
292
260
296
330
312
274
235
668
317
346
333
297
287
322
340
377
400
379
341
308
312
374
345
372
338
665
334
342
307
269
268
312
334
372
378
357
310
294
299
353
341
370
333
670
324
337
289
353
357
396
417
388
359
320
461
302
307
336
308
265
267
278
320
349
373
347
314
291
285
310
344
361
365
530
346
244
269
263
311
333
371
373
340
318
302
316
352
382
409
375
352
305
525
327
260
270
314
350
363
332
321
292
303
271
298
301
244
246
252
667
246
272
256
278
323
370
381
375
318
318
308
368
387
394
351
326
282
668
272
336
343
304
280
288
334
352
381
380
328
310
296
322
354
370
380
524
349
253
263
267
312
331
369
356
321
301
295
323
349
381
392
325
325
245
566
244
252
300
315
355
364
323
296
291
312
419
360
360
354
289
294
290
324
351
374
338
306
285
286
338
316
346
404
398
294
322
305
266
261
323
326
357
341
317
285
283
245
283
328
321
283
256
492
297
257
264
305
328
375
387
378
340
314
327
361
380
398
375
342
304
311
364
454
276
307
276
265
277
322
340
372
367
328
297
289
317
358
375
390
323
311
246
522
287
332
325
257
263
289
310
353
370
370
306
296
295
334
363
393
374
340
248
666
330
337
320
290
265
282
313
343
370
378
333
322
298
316
365
376
384
334
385
335
291
269
242
236
325
314
357
376
397
354
292
373
358
407
398
351
332
253
248
308
297
350
405
417
382
359
604
239
160
192
340
195
370
345
399
410
384
283
381
434
409
366
478
378
352
392
408
337
335
279
225
169
177
353
307
306
408
373
408
367
640
432
232
410
221
366
363
393
314
369
387
419
672
326
460
95
182
307
204
138
240
299
310
391
395
370
285
383
383
331
272
673
359
386
353
281
266
243
274
324
358
405
418
417
305
364
342
314
367
225
276
218
220
329
261
286
393
245
184
192
262
246
316
667
297
259
306
338
408
426
395
344
312
277
286
376
269
266
291
453
318
289
282
342
340
401
404
668
207
352
236
199
218
323
261
288
359
341
406
412
384
331
392
303
338
285
262
214
212
303
291
392
327
330
414
404
409
273
407
674
353
340
260
287
219
248
261
354
311
339
390
413
437
400
362
272
672
374
352
293
269
243
266
335
341
407
404
394
313
336
262
245
669
192
369
220
374
278
207
198
303
246
290
313
380
348
669
371
305
310
222
294
344
322
273
273
337
367
441
435
406
350
615
230
297
295
249
297
323
367
401
423
394
342
333
238
255
225
607
219
225
224
288
296
379
364
406
309
375
367
285
307
263
248
242
328
333
413
406
377
298
324
229
421
264
221
208
220
293
280
363
345
417
424
363
361
269
344
352
261
538
242
316
322
383
399
376
298
333
280
257
307
333
398
412
317
354
672
264
359
306
280
250
229
200
233
284
317
377
400
410
350
326
266
256
557
276
383
367
389
368
336
279
266
275
337
360
428
429
375
359
266
335
280
650
319
339
253
315
301
244
245
301
330
381
398
420
361
330
283
258
252
312
668
238
274
251
214
230
345
281
286
383
312
306
406
339
339
423
406
394
263
669
350
312
424
319
278
272
333
310
394
342
671
361
352
274
274
204
237
257
333
330
412
404
395
307
349
222
175
673
359
367
210
287
327
360
366
281
316
270
256
280
350
360
425
404
668
240
392
252
271
234
267
315
372
400
441
431
374
341
282
277
256
668
211
389
237
309
355
331
278
250
276
325
347
414
412
387
303
669
372
291
293
207
262
286
243
259
318
346
395
418
392
338
297
262
667
264
370
329
353
393
396
265
384
420
404
322
349
284
262
242
241
667
218
335
379
380
293
301
244
256
334
315
388
368
431
406
403
671
428
324
392
394
432
401
290
396
672
311
351
266
275
213
232
254
325
307
378
377
400
316
314
237
221
539
233
304
308
377
395
354
297
305
249
244
298
330
420
351
351
464
295
201
229
204
225
273
322
353
407
425
394
309
336
264
278
262
326
270
654
204
363
300
305
397
389
407
320
405
425
373
350
294
275
254
296
669
220
354
343
395
390
301
390
426
411
339
333
266
263
304
354
379
378
672
213
383
247
231
235
329
368
407
404
320
380
376
218
331
285
268
665
299
252
292
321
386
404
401
296
409
433
425
361
357
267
332
316
275
415
313
280
332
351
412
414
405
291
398
422
407
304
327
672
264
364
343
373
363
294
296
244
254
362
297
317
389
371
421
433
369
373
436
229
350
257
236
293
328
409
396
429
401
314
400
415
339
339
266
245
298
433
206
311
244
278
334
359
413
408
342
328
245
288
254
284
330
384
405
439
674
238
397
331
350
428
438
389
371
243
418
384
463
325
174
545
319
166
317
288
356
378
376
276
396
415
523
399
515
262
406
669
326
397
320
283
308
388
377
363
355
242
218
210
209
338
255
168
668
355
342
270
301
268
254
268
398
669
370
354
277
306
265
262
282
367
368
399
377
315
320
247
256
375
224
339
317
348
353
285
331
309
269
267
324
323
408
397
393
310
446
359
360
352
283
283
233
257
317
369
372
420
416
358
344
276
260
673
230
331
288
253
234
205
223
291
283
353
337
413
423
372
353
525
398
310
299
360
364
389
375
283
333
289
276
308
348
404
375
405
355
664
256
362
360
348
294
287
260
300
342
378
408
392
340
290
271
195
646
348
300
272
216
237
298
304
390
336
337
396
407
411
279
369
399
561
330
313
225
226
242
331
316
384
452
673
238
366
351
374
351
305
266
261
288
351
351
401
396
316
337
253
669
335
336
364
331
293
270
318
347
390
411
394
309
274
196
192
665
327
341
311
271
269
270
333
334
403
404
363
343
291
302
322
334
669
349
354
326
288
275
275
334
368
393
382
333
315
289
329
328
389
487
336
251
260
314
333
360
378
329
318
283
322
345
376
406
377
351
308
472
324
276
300
350
351
299
290
282
326
345
384
386
328
315
274
585
287
326
341
340
279
293
274
297
350
366
387
362
328
292
272
520
324
234
269
247
260
311
347
462
447
374
278
310
280
270
291
317
367
379
370
299
317
278
276
328
583
338
235
281
265
245
287
326
345
388
395
318
335
290
300
326
353
340
674
329
343
292
281
254
274
305
334
389
392
345
329
290
291
354
334
380
361
665
278
345
350
281
296
279
314
369
371
395
360
318
309
296
357
359
394
539
330
277
259
251
280
318
365
377
383
302
308
288
304
348
361
397
385
307
605
242
244
269
317
341
374
372
288
350
352
289
304
368
369
384
325
295
550
236
257
300
310
259
267
269
328
338
388
396
359
308
300
309
347
374
376
668
277
404
385
418
421
362
352
283
252
671
263
336
338
293
295
264
285
330
360
387
372
329
305
277
277
335
671
320
320
350
334
281
293
274
308
359
367
387
359
310
294
270
282
670
259
240
244
288
327
362
386
391
335
313
297
329
360
378
386
598
283
281
341
351
366
340
298
289
342
352
400
404
373
320
318
490
251
264
310
346
350
311
211
259
253
228
250
315
315
373
661
314
341
314
277
257
295
344
381
405
410
346
356
300
297
292
667
323
312
351
349
301
305
277
296
347
362
394
390
322
312
247
668
289
325
258
262
231
270
383
672
403
299
373
366
302
311
258
253
282
328
346
414
377
347
273
420
333
298
346
366
361
273
307
259
267
337
321
385
380
402
363
674
314
364
314
280
243
254
320
326
394
392
414
339
344
257
260
408
205
355
263
208
221
202
281
282
358
371
338
294
289
251
266
430
237
360
275
260
328
343
408
413
376
329
300
275
298
364
361
417
399
669
257
345
366
308
290
260
277
322
361
393
385
320
339
323
277
274
306
668
324
330
362
333
291
262
248
299
346
377
402
418
369
345
298
288
278
361
399
444
351
299
320
361
366
322
359
354
428
397
402
488
350
293
323
349
341
264
296
263
264
315
335
381
393
348
316
292
274
311
421
290
222
226
264
323
279
298
323
327
246
277
256
263
329
347
394
372
668
261
352
369
353
284
290
272
295
335
369
384
390
339
300
288
297
336
666
345
352
348
262
271
274
328
350
390
396
346
303
272
268
341
303
322
448
242
312
319
250
253
260
337
341
389
393
326
328
276
286
367
339
386
415
527
350
229
254
229
264
308
330
380
387
322
323
271
288
287
353
288
652
241
248
259
310
344
378
385
346
332
279
272
441
329
253
305
314
382
378
376
312
272
260
266
641
289
268
306
330
372
373
298
323
282
274
309
329
373
351
672
335
348
295
276
247
266
315
341
392
397
341
318
276
250
673
309
352
323
259
265
307
329
382
395
399
349
310
274
249
664
243
352
371
369
308
320
284
304
371
373
426
392
369
282
398
357
351
303
282
238
274
303
361
364
404
398
371
296
289
255
672
236
349
348
341
291
280
283
340
343
402
403
348
324
283
595
260
280
349
343
308
243
256
216
238
311
318
379
390
367
332
259
667
347
341
248
288
264
300
336
380
392
670
283
289
271
283
347
348
402
398
373
295
290
274
319
347
373
672
298
340
312
252
254
261
306
331
383
393
369
295
306
281
286
346
310
672
312
290
354
362
324
297
275
280
352
353
401
395
338
319
287
269
282
672
260
246
263
316
339
381
392
371
310
313
302
348
371
419
399
399
329
440
354
363
296
280
295
366
367
398
383
296
286
201
213
257
260
338
389
353
340
305
259
251
253
326
324
393
400
374
304
314
289
314
361
381
402
388
572
368
241
322
343
284
275
275
338
343
393
393
338
323
279
297
357
333
366
371
595
422
364
354
410
413
339
333
292
272
290
277
672
263
223
229
286
320
362
377
376
304
324
291
274
309
346
379
400
390
295
356
461
340
337
348
257
257
248
311
321
376
391
394
307
301
280
308
343
380
367
280
277
227
664
283
270
238
210
215
279
289
366
389
389
327
330
287
294
332
402
385
413
344
659
313
346
303
284
261
315
333
387
388
393
316
334
284
277
350
360
380
383
268
453
244
349
340
343
270
312
297
275
312
364
381
395
352
330
280
290
308
377
316
666
306
292
343
355
367
307
275
279
341
345
395
399
345
321
285
333
349
392
402
374
334
312
279
310
340
368
392
387
286
360
493
333
231
265
242
260
335
358
344
292
285
266
324
336
395
312
311
548
198
219
229
303
327
375
392
385
311
330
290
295
365
385
401
381
668
246
343
364
350
301
280
277
336
353
384
393
345
341
280
280
312
668
320
311
354
364
280
293
260
274
320
360
376
398
336
331
271
271
285
660
292
261
300
341
377
378
315
321
280
279
326
345
407
396
365
307
638
241
296
282
248
261
332
354
390
398
346
326
283
276
337
345
391
572
265
300
346
351
293
288
378
338
299
674
297
263
323
328
374
377
314
315
276
301
371
351
386
415
377
340
256
634
365
272
318
288
272
265
322
325
377
368
316
287
268
271
376
251
669
362
332
296
262
269
344
311
368
383
389
332
337
296
265
278
315
674
304
267
298
341
354
393
378
307
298
287
327
349
407
384
401
343
666
333
348
291
275
272
319
347
380
417
407
347
351
288
282
313
601
364
282
308
279
262
285
338
343
400
385
310
327
284
279
473
231
325
290
315
351
276
281
217
237
232
290
311
379
364
393
370
515
353
318
355
364
350
308
287
284
352
671
349
333
268
270
283
327
365
389
373
323
304
292
295
355
330
672
342
351
286
290
252
266
289
342
379
392
373
315
317
277
292
557
355
258
241
271
322
352
392
387
314
333
287
282
321
345
391
393
574
336
293
248
244
267
325
355
384
395
333
315
286
300
357
338
387
497
284
335
325
254
271
252
319
336
369
358
295
298
308
341
358
278
656
276
261
328
345
376
371
282
323
293
281
321
350
382
407
421
557
363
260
246
283
336
370
388
393
324
323
281
278
369
322
342
666
353
335
298
262
237
278
308
348
382
395
368
327
297
343
354
391
389
309
329
275
264
297
334
370
382
365
296
670
318
342
313
257
241
272
327
332
397
395
360
307
284
303
319
376
338
661
358
334
272
272
248
313
316
389
382
406
376
310
308
275
301
378
672
325
323
245
222
156
182
257
259
345
362
379
330
316
281
290
351
354
408
356
667
297
347
335
275
266
277
339
364
406
416
355
335
297
281
311
378
372
395
311
664
332
346
293
278
258
319
343
381
399
372
315
309
283
328
362
369
394
335
491
312
227
236
240
316
311
384
390
345
322
269
277
277
343
353
394
389
267
382
354
302
293
315
365
390
390
321
319
244
672
303
347
339
273
282
281
349
355
402
404
359
338
327
362
394
620
250
256
166
184
267
274
332
354
358
293
303
276
320
359
379
399
328
669
339
328
257
259
293
334
374
385
401
348
327
281
278
345
338
401
589
258
263
334
337
376
372
296
316
263
274
308
349
384
386
347
292
663
313
331
252
277
247
256
310
313
381
378
352
310
296
271
296
279
668
279
236
252
324
336
383
378
318
319
276
292
358
372
396
364
291
668
306
340
303
287
244
275
309
355
371
398
372
315
370
355
309
392
394
356
316
301
276
321
335
386
391
351
320
671
274
331
290
257
238
262
289
331
369
387
383
305
309
281
304
371
336
359
476
256
347
349
339
264
269
277
326
350
400
406
372
327
293
286
323
340
397
402
386
305
672
332
326
248
275
259
270
333
343
387
388
306
326
276
271
291
325
359
381
360
611
238
236
246
300
329
374
392
365
325
297
285
311
344
381
409
378
333
323
283
295
442
231
331
281
300
356
361
265
304
273
276
330
332
317
302
236
240
267
305
330
354
667
322
325
246
263
271
341
324
380
401
408
333
373
319
307
368
376
370
279
326
286
272
279
319
358
368
381
309
307
263
276
288
667
302
271
308
334
370
348
310
281
273
317
353
371
396
344
330
280
264
671
226
355
318
347
377
390
337
301
280
289
340
358
396
412
360
312
248
655
320
336
280
274
268
322
328
394
396
332
332
273
272
309
321
383
540
280
293
223
228
242
308
315
307
288
259
215
231
282
310
348
375
351
667
302
338
304
294
253
274
305
345
380
405
389
339
318
288
299
320
372
436
364
309
344
355
312
303
260
267
316
343
386
388
328
331
271
287
286
352
395
378
316
315
300
336
367
393
385
306
327
269
245
672
238
333
299
336
364
361
274
279
274
337
342
394
394
330
327
277
276
341
552
324
258
281
339
343
378
364
300
311
280
300
352
374
400
399
335
261
234
657
281
320
204
269
290
270
247
244
307
315
391
396
362
322
306
290
328
327
667
353
329
291
254
255
298
314
384
398
388
312
328
281
275
317
354
383
388
322
667
275
342
342
275
282
256
290
332
370
388
391
316
336
286
279
334
335
390
375
636
235
322
357
352
284
279
281
346
350
392
385
327
308
292
306
361
334
428
411
352
319
288
298
340
350
386
380
316
673
323
335
267
272
239
264
299
336
368
382
319
322
284
311
333
379
384
653
145
280
273
318
314
256
266
267
342
351
404
407
371
331
328
302
325
342
667
365
358
280
308
286
279
338
356
398
396
335
331
279
278
362
346
391
444
446
289
348
356
336
301
259
273
318
357
377
393
355
317
299
283
339
317
355
331
663
341
348
296
265
251
276
306
349
380
397
366
306
282
280
332
350
393
392
318
670
323
323
249
274
257
269
333
336
396
389
320
334
284
277
309
343
381
390
358
652
384
315
308
373
370
390
345
342
273
277
302
671
301
264
305
326
359
365
278
285
277
342
347
397
399
323
303
290
308
357
334
670
349
355
333
272
282
270
297
332
374
388
401
336
340
292
300
323
353
353
673
346
339
260
286
254
274
307
342
380
401
386
327
329
282
290
326
359
514
247
322
310
358
368
317
290
269
293
327
364
395
404
351
329
290
282
321
296
673
262
245
246
331
342
380
383
322
307
278
296
357
388
385
307
668
311
281
232
229
196
256
294
324
360
385
378
331
309
283
305
346
566
313
250
266
334
342
391
458
358
381
669
250
320
304
253
257
294
325
359
384
366
289
280
289
304
373
321
667
334
333
347
275
281
269
305
331
385
386
377
306
309
283
311
330
633
342
281
266
245
287
332
350
395
398
336
320
284
309
313
383
331
669
338
357
341
288
298
270
276
322
347
398
395
328
334
297
293
358
328
629
352
320
238
241
278
319
381
390
368
280
311
281
256
260
268
362
324
603
333
255
278
258
280
354
360
403
406
342
343
290
297
369
354
397
465
418
361
363
309
293
253
264
336
333
390
393
360
321
288
282
312
345
351
667
308
373
434
427
392
340
323
280
281
406
218
340
288
293
340
355
339
284
291
270
284
330
348
391
392
328
324
267
670
270
351
365
345
291
282
283
350
357
395
395
336
342
302
279
316
329
641
358
325
289
267
320
345
377
401
381
331
244
277
252
232
284
258
669
275
242
270
330
339
397
391
325
330
301
315
364
382
408
395
332
328
440
279
350
357
351
302
286
268
307
339
376
401
392
344
324
287
292
325
355
356
661
278
342
348
288
285
274
339
342
395
395
335
334
280
293
350
357
391
473
352
292
310
346
345
262
285
269
298
391
395
674
295
335
275
257
241
285
323
342
382
364
292
294
275
314
346
376
387
322
671
290
336
239
291
302
262
282
347
329
315
302
257
254
252
316
289
668
324
332
365
353
281
316
290
297
367
367
404
406
336
362
311
297
305
614
346
333
273
257
254
323
329
390
399
385
306
325
279
282
347
358
653
317
314
246
252
271
348
346
391
391
333
329
281
285
364
351
390
368
641
282
337
347
262
266
288
336
359
389
395
342
320
290
295
353
459
261
311
293
251
240
260
305
332
388
394
342
325
285
278
329
336
394
470
375
404
379
291
288
303
351
371
390
323
673
343
349
295
280
250
280
331
354
388
395
350
328
288
291
354
340
383
363
670
281
353
366
293
282
274
328
349
392
396
363
322
284
290
328
341
386
352
668
348
353
284
286
257
301
334
374
394
408
334
327
277
280
329
351
374
384
350
394
227
324
363
354
283
315
288
277
314
369
380
391
339
321
276
287
333
365
636
317
303
252
252
277
323
363
391
383
336
319
289
306
356
386
342
320
483
366
283
273
270
300
306
267
243
252
333
309
368
392
403
358
337
268
666
305
338
303
290
264
298
395
376
673
333
365
318
295
256
259
286
364
364
401
385
314
338
275
279
468
370
359
360
265
306
260
255
258
319
351
396
408
415
308
347
294
397
319
329
257
260
245
306
306
406
379
411
407
322
345
284
273
276
406
265
258
243
303
319
364
378
357
299
305
277
297
348
369
403
393
361
297
473
336
247
240
350
328
377
385
373
309
275
199
224
220
317
283
328
468
230
346
305
360
379
373
302
331
297
290
357
369
408
407
342
356
294
291
276
667
271
240
254
308
315
380
386
386
309
308
283
310
345
376
411
379
348
252
554
383
327
336
406
401
380
337
296
292
284
333
344
660
326
339
293
276
245
263
323
344
388
395
350
328
281
282
319
383
387
399
300
669
359
341
280
287
271
317
338
372
398
380
319
323
281
298
364
341
318
667
320
347
318
214
235
204
210
253
300
328
366
386
364
310
315
299
345
312
667
328
324
366
345
295
292
284
338
341
398
406
367
346
294
300
309
365
343
669
351
348
265
289
267
266
309
334
395
394
350
322
278
275
313
349
386
625
246
310
312
240
258
252
297
339
363
395
390
317
336
282
292
303
371
300
656
262
228
344
345
406
398
426
379
324
256
672
344
344
291
275
236
253
282
341
367
395
387
309
326
277
274
387
352
339
670
321
294
217
257
258
227
269
321
335
391
396
362
322
288
313
312
384
340
668
367
336
273
248
256
333
318
377
381
405
379
314
296
283
318
364
365
397
361
599
250
236
281
303
360
374
383
296
301
276
318
358
371
398
373
293
300
285
329
300
668
308
289
342
352
321
280
271
276
326
342
390
397
339
317
284
272
314
323
377
350
667
348
349
272
295
267
261
307
331
390
399
352
328
276
272
293
333
378
423
672
389
281
315
285
275
324
345
386
389
360
291
276
362
228
278
261
227
240
305
298
373
376
373
302
320
280
283
341
344
404
396
354
315
286
620
243
277
253
256
341
312
353
365
401
394
341
323
283
294
335
371
382
394
561
342
306
275
250
245
303
336
386
395
363
320
300
283
316
351
406
403
371
279
669
348
360
345
289
283
274
334
356
389
403
372
330
315
277
325
339
382
669
313
334
279
264
263
334
335
385
392
267
346
370
322
275
277
241
518
292
198
244
239
258
299
340
368
397
393
304
336
296
286
321
448
231
359
286
339
364
403
405
371
673
257
350
354
289
295
249
256
314
322
371
381
344
308
276
275
461
278
335
346
350
286
293
260
288
341
346
393
396
343
339
277
280
321
672
326
327
363
357
280
311
274
290
341
357
397
396
346
307
282
262
673
223
346
334
362
360
295
298
275
317
373
386
403
372
312
315
263
502
340
287
300
360
371
377
300
264
214
217
246
306
299
357
339
667
322
351
298
292
289
350
388
407
392
332
336
290
327
329
397
353
667
291
336
303
268
255
274
323
359
386
389
331
331
276
295
327
373
339
670
344
345
272
363
322
334
404
359
375
380
660
239
352
311
349
371
349
291
281
272
310
330
380
393
385
290
328
372
317
242
243
258
312
332
371
370
295
325
294
281
308
345
391
395
353
307
291
524
355
237
269
242
293
333
366
378
348
301
274
201
207
265
276
337
349
346
668
247
350
352
347
280
301
282
313
367
387
407
399
343
321
290
305
358
387
363
668
285
351
350
282
289
272
304
340
362
401
398
367
322
290
288
330
340
385
562
257
288
341
346
356
310
302
268
285
340
359
392
387
320
339
303
283
246
668
230
343
342
316
283
271
336
392
368
674
349
354
343
286
286
250
268
321
323
391
386
331
333
270
275
288
354
667
337
358
277
309
274
261
289
327
358
313
327
298
249
259
239
562
260
323
315
398
379
405
376
357
281
288
322
329
403
348
661
374
355
281
278
245
279
312
344
378
374
323
285
247
245
364
197
279
302
243
238
226
278
302
360
360
335
305
271
263
295
488
260
277
334
364
369
315
296
261
268
334
341
394
392
339
297
511
344
241
267
264
333
332
387
386
354
321
282
272
301
333
367
383
371
295
561
232
236
288
320
362
371
367
349
370
315
364
349
300
282
244
260
308
329
368
375
339
298
280
273
335
350
393
382
347
302
406
314
341
339
248
307
299
263
273
322
351
401
407
375
311
310
291
347
345
398
362
672
269
336
342
296
287
264
293
328
376
395
369
305
308
282
299
356
351
392
356
672
253
350
347
360
318
299
264
284
337
342
399
399
346
323
285
289
343
334
672
358
343
288
292
263
294
333
367
397
403
357
339
288
286
343
336
387
387
393
510
220
244
309
291
356
294
305
285
263
233
245
284
331
371
393
376
319
319
298
319
366
356
668
292
343
331
364
361
430
424
374
361
288
295
246
578
222
228
247
322
319
366
372
354
297
301
267
305
339
373
386
374
308
310
267
284
515
342
280
284
352
358
328
297
272
270
325
327
398
398
342
323
281
281
329
357
375
394
310
664
344
345
271
298
277
271
331
352
396
401
372
332
310
286
295
364
373
400
432
434
243
316
324
276
256
271
317
278
301
324
314
265
251
271
325
341
385
400
400
481
296
315
363
371
321
309
276
282
353
340
387
396
369
310
313
286
314
352
367
664
336
320
263
256
259
306
321
366
381
347
303
288
272
310
356
399
347
300
277
276
339
335
382
385
350
318
270
260
254
654
235
243
227
268
336
359
379
369
297
316
268
266
312
368
382
390
308
583
220
255
241
294
340
361
387
380
329
300
275
287
368
387
397
330
336
263
273
271
280
336
296
320
285
252
239
255
311
322
374
392
353
666
237
361
325
360
389
380
325
311
286
307
337
374
400
392
318
338
295
280
310
304
667
316
296
343
361
343
266
281
261
295
339
357
389
386
299
352
312
283
236
663
311
343
315
288
261
273
333
357
387
381
334
309
272
270
339
331
377
349
667
314
346
440
424
411
353
327
290
288
304
366
344
672
327
335
272
280
258
287
351
355
383
355
298
302
336
393
376
373
283
667
267
241
301
326
328
245
257
257
320
345
380
395
368
316
295
290
353
323
670
331
321
355
323
296
271
265
317
338
373
394
356
298
302
285
320
352
385
387
334
667
276
336
329
257
271
258
318
334
383
382
320
320
273
284
347
349
388
366
330
289
274
256
668
222
346
301
332
369
378
326
293
272
277
312
349
379
392
346
313
278
274
306
666
291
253
272
332
357
372
332
314
272
271
303
339
368
415
379
246
252
264
315
336
375
367
314
298
270
281
329
346
386
376
322
302
249
670
288
349
356
325
301
267
287
339
344
392
394
335
334
283
304
349
369
511
274
352
357
319
306
266
267
323
325
394
401
371
335
313
284
307
317
389
347
671
348
354
317
305
264
271
335
354
389
400
342
319
290
289
364
387
395
367
301
568
237
238
305
316
385
380
383
322
307
283
304
371
355
397
411
354
337
251
658
356
353
266
313
295
286
345
359
391
385
285
317
214
280
299
244
220
667
310
340
320
295
264
292
330
369
390
406
366
342
288
292
672
362
378
369
303
315
266
280
330
353
378
386
338
317
281
290
309
359
344
671
340
339
267
277
261
294
336
371
387
384
335
297
281
313
350
381
406
390
339
279
672
314
327
272
283
259
281
332
351
390
380
320
322
281
281
329
344
390
409
352
346
257
674
334
353
337
288
301
271
286
337
340
399
400
348
263
260
316
324
387
418
406
232
222
289
291
334
298
259
251
288
332
358
391
407
357
322
292
288
322
551
363
299
302
373
369
388
343
320
288
289
329
363
390
402
364
353
283
282
317
546
308
228
230
288
336
363
384
434
331
368
672
241
335
347
272
281
250
259
305
329
377
385
375
293
297
272
298
331
369
384
380
259
674
344
354
337
286
303
269
275
314
379
393
402
353
334
298
288
313
357
375
405
369
668
238
360
364
320
305
264
300
334
343
312
313
247
260
243
297
312
368
339
670
336
349
298
267
262
308
332
389
388
402
351
331
291
308
355
369
407
396
339
644
228
295
293
246
256
313
316
377
383
364
300
308
281
296
337
354
390
379
394
344
236
262
244
260
319
334
380
368
322
293
279
301
349
367
390
350
324
279
600
235
237
254
406
358
383
422
424
344
359
248
499
220
254
314
318
359
362
295
300
263
282
350
370
392
376
324
264
264
301
669
292
196
167
221
273
286
350
364
363
276
285
292
345
364
406
406
359
451
316
363
363
292
302
267
286
339
342
407
405
336
356
312
301
290
341
366
404
388
316
667
325
336
261
268
252
320
340
369
388
361
325
292
280
303
370
370
392
350
327
276
269
536
337
235
308
334
293
269
264
329
352
388
388
333
335
276
275
320
373
384
376
370
419
238
328
351
340
271
297
264
282
339
342
395
398
343
318
279
425
350
236
266
300
328
365
391
386
300
340
318
280
268
297
331
362
396
372
300
275
671
279
349
352
291
284
267
311
353
373
402
388
329
334
289
299
385
363
381
403
359
667
271
354
353
354
269
312
284
272
304
344
362
396
397
305
307
284
320
336
389
340
672
346
350
277
280
248
283
314
353
375
396
330
333
283
284
339
344
403
413
356
337
243
664
349
361
332
305
269
269
330
355
388
403
376
335
316
286
301
357
373
494
357
285
271
331
338
303
298
226
231
243
307
315
383
387
385
289
330
287
244
667
270
354
359
357
287
317
343
397
414
401
669
257
243
235
281
327
365
375
352
316
282
263
292
347
380
406
384
346
276
666
310
344
312
265
256
284
324
350
389
398
351
335
279
286
356
335
370
350
673
344
352
313
257
254
268
319
342
380
398
359
296
297
282
324
348
403
393
392
276
674
342
347
330
270
284
262
286
358
367
400
380
264
306
288
273
308
368
352
306
268
506
199
260
293
352
376
378
316
324
288
291
321
372
397
405
356
338
284
291
303
385
570
251
235
245
291
314
374
392
365
322
291
279
294
345
378
394
357
316
297
277
311
343
383
408
309
341
302
288
300
341
358
394
377
318
312
267
270
340
306
338
347
674
320
352
343
269
306
286
267
295
351
371
391
384
327
305
277
302
376
365
392
395
298
472
267
329
331
257
270
269
341
324
381
368
309
295
283
303
347
305
316
256
279
251
249
324
289
277
341
356
327
295
273
280
334
358
406
410
344
340
284
287
321
334
408
399
380
314
314
352
357
305
340
363
330
293
278
275
337
336
398
397
341
319
280
272
298
345
356
392
336
670
322
330
260
263
254
308
333
386
391
368
328
292
281
304
373
369
401
372
330
320
377
364
412
401
327
336
277
270
301
332
380
394
353
311
283
485
321
221
259
247
252
314
315
324
256
273
258
302
322
350
326
280
251
198
657
328
347
352
285
302
271
288
358
367
413
409
352
351
294
293
355
379
407
400
562
334
309
252
257
250
298
326
363
391
386
317
333
285
280
317
351
386
396
351
337
278
276
438
264
333
334
337
288
301
267
279
324
347
393
394
348
330
280
276
344
347
393
396
346
306
283
239
658
291
322
271
284
266
289
323
360
390
384
315
308
279
296
347
361
396
400
295
331
249
664
360
300
293
383
383
383
304
320
274
270
324
316
370
403
535
319
278
234
228
298
312
369
373
386
335
334
277
286
345
346
396
400
343
317
294
290
360
337
671
353
340
270
283
271
299
331
363
394
398
330
305
285
304
354
357
408
403
335
328
641
232
311
334
276
272
274
314
352
396
404
359
338
291
283
306
340
375
410
379
339
254
672
340
350
332
276
274
288
360
344
391
398
355
313
297
284
351
351
397
409
361
341
304
260
304
336
351
343
273
265
184
194
269
287
344
359
375
336
321
280
292
342
356
617
298
281
248
280
339
347
457
442
411
366
330
282
671
251
338
347
288
300
257
252
288
331
353
380
365
308
295
272
291
322
373
373
373
252
670
303
270
315
344
380
388
348
329
274
291
333
367
395
402
365
347
307
286
308
309
674
341
338
360
320
291
268
300
338
361
400
394
332
333
286
294
343
358
403
401
355
322
670
238
349
348
268
300
274
266
324
321
382
314
322
292
261
249
265
314
345
384
393
325
669
298
348
345
277
296
286
352
352
402
404
365
345
292
287
319
356
373
416
392
341
274
668
339
336
265
271
269
330
330
384
395
358
297
286
331
674
331
304
335
354
360
274
294
260
276
319
355
373
384
309
310
274
288
356
343
396
391
337
247
652
344
330
277
266
254
300
316
385
387
380
325
311
285
296
343
379
402
395
349
311
289
250
669
230
323
378
375
289
215
238
212
241
280
329
358
386
381
329
314
302
317
364
343
670
359
332
301
264
260
310
332
381
402
385
327
327
282
289
333
366
402
394
337
326
283
279
471
304
312
352
344
274
291
269
297
335
370
384
375
305
305
292
338
356
391
389
329
325
272
382
250
330
340
264
290
266
260
308
328
380
394
368
366
382
501
259
357
319
346
361
341
287
287
273
351
355
385
379
327
306
269
268
338
338
402
393
244
673
258
228
226
216
288
312
320
254
274
259
264
337
331
399
404
392
341
313
293
270
668
246
332
355
322
280
274
324
348
396
403
385
328
305
289
327
360
402
397
386
255
553
326
232
244
241
311
330
373
384
349
292
280
285
351
349
392
396
307
314
275
292
395
238
285
262
230
244
298
333
376
382
325
306
267
266
316
338
391
398
353
301
300
241
665
259
349
364
342
271
270
285
339
342
391
397
343
322
277
296
467
279
318
301
351
371
392
373
291
309
270
282
307
340
333
674
341
352
314
277
258
260
328
331
390
390
321
321
272
279
301
356
353
403
388
332
486
346
242
232
254
314
325
382
386
372
302
306
272
281
318
360
381
404
401
292
357
393
387
240
310
335
278
266
262
325
347
395
403
360
335
297
280
302
373
373
403
386
321
319
626
231
292
291
235
251
313
317
385
376
398
362
322
281
287
347
348
404
407
386
312
332
220
220
274
282
344
357
361
256
260
202
220
240
292
306
369
378
389
321
298
283
296
349
370
574
259
255
308
318
445
426
432
361
344
284
280
296
672
304
263
300
343
360
356
283
303
267
275
320
357
374
392
322
319
275
287
334
357
337
671
324
344
287
293
254
268
292
330
384
404
391
337
314
284
278
335
352
404
412
341
345
228
444
259
273
232
234
289
309
364
379
386
334
330
281
284
335
356
389
406
343
354
283
297
671
244
249
245
338
254
204
235
286
326
348
373
361
308
289
284
333
367
387
411
345
665
331
341
271
272
264
342
323
381
400
406
330
333
276
285
348
346
404
404
357
306
668
264
350
360
330
292
268
257
307
352
399
454
296
641
364
363
280
306
272
249
288
325
360
398
402
348
347
250
319
293
232
669
330
351
286
292
245
248
295
321
387
406
402
320
383
383
310
300
276
292
672
307
282
322
345
384
375
293
314
275
351
359
400
396
332
332
264
205
168
667
259
342
354
367
298
306
271
281
320
383
401
417
395
355
311
295
291
377
506
254
354
282
270
352
363
395
382
327
304
277
285
356
353
406
393
326
330
264
240
667
306
341
307
244
246
280
321
344
393
405
372
330
290
271
288
346
350
418
392
399
252
580
348
259
284
236
241
276
318
418
421
427
324
381
443
338
347
265
293
256
251
284
338
343
384
371
287
352
357
289
288
267
325
375
430
407
304
348
355
260
292
274
226
226
247
315
326
387
393
373
289
311
281
299
369
328
351
355
669
294
351
336
269
283
262
294
337
378
411
395
330
328
273
275
336
357
402
409
337
330
264
668
286
355
365
313
301
256
272
320
350
385
397
367
324
272
264
309
331
397
381
399
313
667
346
330
267
272
251
301
323
365
398
395
290
356
356
272
330
333
271
276
293
373
348
653
333
330
244
270
241
276
335
376
395
372
336
288
416
305
250
272
332
338
374
367
307
281
259
286
348
350
396
397
320
347
297
292
292
369
323
671
318
293
352
371
383
288
338
314
282
272
303
338
362
405
410
333
329
287
273
336
311
671
335
334
357
318
310
260
267
325
330
402
401
380
337
295
276
280
357
335
374
404
401
298
671
356
356
272
343
371
345
299
273
296
357
356
415
412
341
345
276
285
357
336
387
373
413
429
516
355
293
302
378
393
367
320
250
257
298
343
389
400
336
275
263
216
219
265
271
667
281
249
295
322
374
398
394
313
345
289
283
318
360
449
669
264
309
280
238
250
303
329
365
393
395
320
343
277
267
282
337
334
391
390
393
285
347
457
346
356
344
285
293
259
262
326
334
403
407
350
349
277
279
302
364
382
411
382
334
294
671
250
365
348
379
375
278
316
270
271
319
343
380
406
407
313
354
308
290
275
325
344
400
544
248
323
308
362
332
272
260
270
365
302
268
265
333
346
340
251
298
288
264
310
322
386
361
665
361
318
301
263
273
323
341
395
414
356
329
291
275
305
342
382
412
394
333
320
535
325
271
255
234
277
304
368
369
397
367
298
283
325
379
660
361
313
269
241
255
333
310
367
386
395
328
302
265
269
341
320
359
389
401
386
307
393
263
351
368
324
288
281
271
317
345
392
409
365
340
283
280
293
360
364
403
350
670
332
352
287
242
281
344
351
407
404
329
289
248
241
238
318
322
383
391
596
241
220
257
306
338
382
400
368
329
293
274
340
338
408
409
389
322
334
283
309
315
667
344
360
365
291
305
258
276
333
358
397
399
344
322
271
273
324
345
390
398
439
378
293
320
238
240
254
318
326
383
398
388
284
349
327
274
273
321
341
407
388
405
