100 Hz
---
688
307
305
337
352
319
319
327
352
327
304
316
337
316
483
472
312
312
312
284
280
319
327
295
287
312
339
344
312
304
327
344
319
300
312
335
344
318
304
319
352
344
312
316
352
348
316
312
348
355
327
312
332
368
352
319
312
344
355
327
280
449
480
284
327
319
287
287
327
344
319
312
319
355
355
319
312
335
352
319
304
319
352
352
312
313
352
355
327
312
319
355
352
319
312
339
359
344
319
319
352
319
295
295
511
384
287
287
284
327
327
295
284
312
335
319
287
287
327
344
319
295
295
339
348
312
300
334
335
334
305
335
348
295
527
339
271
271
312
319
313
284
295
332
339
312
295
318
348
344
304
304
335
352
319
312
327
355
352
316
312
344
355
334
312
319
355
355
319
312
344
369
359
319
312
337
359
344
280
385
575
332
284
287
319
335
304
287
313
344
352
316
312
345
352
319
300
316
348
344
305
312
352
319
305
327
353
344
312
305
348
352
319
304
339
352
344
304
304
344
337
271
504
312
286
255
280
304
316
287
275
307
327
319
287
287
334
344
316
287
295
327
344
319
304
312
345
344
304
304
327
352
332
304
312
352
304
319
287
287
327
344
319
304
312
344
352
316
304
319
348
335
312
312
353
352
319
312
335
353
339
312
312
352
355
319
319
348
352
344
312
319
355
327
345
504
415
319
319
287
287
319
335
312
295
353
355
327
304
312
335
335
304
304
344
348
319
295
319
348
344
304
295
327
344
319
307
327
348
327
295
304
344
318
316
527
355
304
305
319
287
280
312
335
319
287
304
335
348
319
304
316
344
337
304
304
334
352
327
304
312
344
352
316
304
327
352
344
312
319
359
352
319
304
319
353
304
440
556
319
316
284
295
335
344
318
305
344
355
332
312
316
352
352
312
316
359
353
319
312
319
355
316
295
575
304
319
291
319
344
327
307
319
355
355
319
312
327
352
319
312
319
353
352
319
295
327
344
334
304
304
344
352
319
312
335
352
344
319
327
352
344
312
319
327
319
455
496
291
335
319
291
302
335
335
305
313
352
355
327
313
334
352
327
295
305
339
348
313
304
327
348
335
304
305
335
352
319
305
327
353
344
319
312
344
352
312
304
319
304
403
624
295
312
319
287
280
312
327
319
287
295
335
344
313
295
312
335
327
295
348
352
348
312
304
352
639
280
271
284
318
319
287
284
319
335
312
287
307
335
344
312
300
319
352
344
312
316
352
352
312
304
335
353
344
312
312
352
355
332
312
335
368
352
319
312
344
355
300
335
551
335
284
286
319
327
312
287
305
335
345
319
312
344
352
319
295
307
337
335
312
295
327
344
319
304
305
335
344
312
304
319
344
335
304
318
348
352
319
304
319
352
304
352
632
287
287
319
319
287
287
327
327
304
318
344
345
305
295
327
352
332
304
312
344
352
316
304
319
344
335
304
304
344
352
319
312
339
352
327
319
304
335
339
312
295
319
348
335
305
305
352
352
312
304
335
352
335
305
319
353
352
319
312
335
355
339
312
319
353
353
319
312
319
353
307
448
624
304
316
312
280
280
319
335
304
287
312
335
335
304
304
335
344
312
295
316
344
344
304
304
339
352
327
304
312
344
352
312
304
334
352
352
318
319
344
316
271
319
542
316
304
327
319
287
287
319
344
327
304
304
344
348
312
291
312
335
319
291
312
344
337
305
300
334
348
327
300
312
344
352
316
304
334
359
359
312
304
327
352
344
271
284
632
312
319
319
286
312
327
352
319
304
312
345
348
312
304
327
352
327
312
319
352
335
304
304
339
319
319
588
280
312
312
271
271
312
319
312
284
302
327
327
295
295
335
339
312
295
313
348
344
304
304
335
352
319
312
352
352
312
312
345
355
335
312
319
352
344
305
305
304
384
624
287
287
327
327
287
287
319
352
344
312
312
352
352
312
295
319
344
327
295
312
335
348
316
304
319
352
337
304
304
339
352
319
305
334
359
344
305
304
327
352
287
391
608
304
319
318
280
286
327
335
305
295
327
352
335
304
304
344
344
312
295
327
319
344
318
305
339
319
391
639
286
280
319
319
286
280
319
334
312
286
304
344
344
307
295
316
327
295
304
348
352
312
295
319
352
335
304
304
344
352
319
304
327
335
334
291
300
339
335
255
526
280
319
312
271
281
319
335
316
291
319
352
344
305
305
344
344
295
291
319
352
335
304
312
344
355
327
307
318
355
352
318
312
335
355
352
319
316
352
352
307
312
344
312
423
575
327
304
281
304
335
334
291
304
352
359
335
313
319
352
335
295
287
319
339
335
304
295
334
344
319
295
307
339
344
304
295
327
348
304
304
334
352
327
304
316
344
335
295
284
312
335
327
287
295
327
344
319
295
304
344
344
304
291
319
352
335
304
304
352
352
312
291
319
348
335
271
449
449
280
316
304
271
271
312
319
295
284
312
337
335
295
287
319
337
327
295
287
319
352
339
295
304
344
352
319
304
319
352
352
312
305
344
355
327
312
327
359
352
318
307
335
355
287
385
600
304
319
319
287
287
327
348
327
305
327
359
359
312
304
337
335
305
295
327
348
319
304
305
344
344
312
295
327
352
327
300
291
348
353
312
291
295
335
335
280
255
472
348
344
312
295
318
348
339
304
304
335
348
319
304
312
345
348
312
304
335
352
344
312
318
348
344
304
305
312
319
494
448
312
318
287
271
287
319
319
284
287
327
344
318
295
304
337
335
305
287
312
335
335
295
304
344
348
312
295
319
348
344
304
304
344
352
327
304
327
359
353
312
305
327
355
316
399
280
275
286
319
318
280
287
327
335
304
295
327
352
327
295
300
335
319
295
295
335
339
312
295
319
344
344
295
304
335
352
319
304
316
352
359
319
305
319
352
334
305
287
353
575
295
304
319
304
280
304
327
344
304
295
334
352
327
304
312
352
352
316
304
327
352
327
304
304
295
312
600
287
312
327
305
280
291
327
335
305
304
344
352
319
295
304
334
327
287
287
327
344
327
295
304
339
344
307
295
319
327
295
304
345
359
319
302
304
344
352
295
271
575
291
304
255
255
304
319
304
280
295
327
332
291
287
319
339
319
295
295
332
344
318
295
318
345
344
304
300
335
352
327
305
319
353
344
312
316
353
352
335
305
319
352
327
255
513
304
316
287
287
327
335
304
291
327
353
352
319
318
352
352
312
287
304
339
344
312
335
319
345
335
255
451
412
319
319
295
271
287
319
319
287
287
335
348
327
300
305
335
327
287
316
335
327
291
304
344
344
304
295
319
344
327
295
304
335
352
319
287
295
332
334
295
255
304
639
312
316
280
255
280
312
319
295
284
312
335
319
287
295
327
335
304
291
319
344
327
295
305
344
348
312
295
319
352
335
304
305
344
352
327
316
327
352
319
304
319
319
316
524
368
304
305
319
287
280
312
327
318
287
304
335
344
318
304
318
344
335
304
304
335
352
319
304
319
348
352
312
312
344
352
319
312
368
344
316
304
344
355
335
316
316
352
335
295
287
319
344
327
304
295
334
344
313
287
304
335
344
312
295
312
352
352
304
287
319
344
335
280
319
591
316
287
270
287
319
319
284
287
327
344
319
304
305
335
335
295
295
335
344
316
300
319
345
337
304
304
335
352
319
304
312
344
348
316
318
344
352
319
304
319
344
312
510
398
312
304
318
287
271
291
319
319
287
291
327
344
318
295
304
339
335
304
295
319
319
295
319
344
327
295
304
344
344
318
304
319
355
352
316
295
319
344
327
255
455
408
319
312
280
270
287
319
348
319
304
327
352
344
312
312
352
352
313
319
359
353
327
312
316
352
327
284
472
432
312
319
280
284
319
327
304
287
312
344
352
312
304
319
344
319
295
295
344
348
313
295
319
344
335
305
304
344
352
319
295
316
348
353
327
304
318
345
344
312
280
327
639
319
295
271
280
316
319
287
284
319
335
295
295
335
335
295
287
319
348
335
304
304
344
352
319
304
312
352
344
295
295
319
352
339
295
304
345
348
312
270
312
639
319
319
280
270
287
319
319
286
287
335
344
316
291
312
344
335
304
295
327
352
327
302
312
344
334
480
511
300
305
319
287
280
312
334
319
287
304
344
352
319
295
312
335
327
287
295
327
344
319
295
304
344
344
304
291
318
348
327
304
307
337
344
305
287
304
335
304
344
575
312
295
287
319
327
295
291
327
348
327
295
304
344
335
312
287
312
339
344
300
287
312
335
335
295
295
335
344
318
300
327
348
344
295
295
335
352
287
432
608
304
319
304
275
284
319
319
286
287
327
344
316
295
304
344
339
295
295
319
348
334
304
295
344
352
316
295
319
352
344
304
295
352
359
335
305
304
335
352
295
295
344
295
304
344
348
305
300
319
352
335
295
304
344
352
319
295
318
352
353
319
295
318
344
337
371
551
291
312
319
284
280
319
335
312
287
312
335
348
312
287
295
327
319
295
286
319
339
327
291
295
335
335
305
295
334
344
319
305
327
348
327
304
304
344
335
287
480
414
332
319
287
271
291
319
319
287
287
335
348
319
300
305
335
335
287
287
327
345
334
295
295
344
352
316
295
316
352
344
304
307
339
352
319
295
304
348
319
304
542
319
271
255
295
316
319
284
281
327
335
313
287
312
335
335
295
287
355
335
352
255
440
412
291
312
271
280
316
335
318
287
305
344
359
335
312
304
335
334
291
287
316
335
319
295
304
344
344
304
287
312
344
344
318
304
319
344
319
304
295
319
319
448
510
284
304
319
291
271
295
319
327
295
287
319
344
339
291
287
319
339
335
304
295
335
352
319
304
312
344
348
304
295
327
352
344
312
312
348
344
295
300
313
291
480
423
327
319
291
275
304
327
319
287
295
334
352
327
295
327
334
291
286
316
344
339
295
295
327
348
319
295
304
348
352
304
291
327
344
327
287
287
327
339
300
472
632
317
344
319
295
319
352
344
305
304
335
352
327
295
316
345
352
319
316
335
352
316
295
319
339
316
451
515
316
287
319
327
300
284
304
335
335
304
304
344
344
312
287
287
335
335
295
287
319
344
335
304
295
327
345
319
295
304
348
352
312
295
335
359
344
304
295
327
348
304
327
615
295
312
318
280
319
335
319
287
304
335
344
304
287
295
335
339
312
291
316
344
335
295
287
319
337
327
295
295
335
348
319
304
316
355
352
319
304
316
352
344
280
440
510
304
304
319
287
280
312
327
319
291
305
345
352
312
304
304
348
327
304
312
352
359
319
300
305
339
352
271
384
575
307
295
255
271
304
327
319
287
287
334
344
319
295
291
335
327
287
287
319
344
334
295
300
335
344
316
295
312
344
337
304
295
335
352
295
295
339
348
316
287
271
480
384
280
280
268
312
319
295
255
280
305
327
316
286
287
327
327
295
280
304
335
327
291
295
344
348
312
295
319
352
335
304
304
344
353
327
312
312
364
359
312
304
319
352
352
280
384
639
312
319
304
271
281
319
335
312
291
319
352
337
295
291
334
344
312
287
304
339
352
319
300
327
305
316
415
543
312
286
312
319
287
275
312
335
319
287
295
335
344
312
284
287
327
334
295
287
339
344
304
287
312
335
337
304
295
319
352
335
312
305
348
335
304
284
316
304
408
638
271
255
287
318
319
280
284
319
335
312
287
305
334
335
287
286
319
344
332
295
295
339
352
319
295
318
352
344
304
300
335
352
327
295
318
355
353
316
304
312
348
319
359
639
287
287
319
312
271
280
316
344
327
295
295
335
345
312
287
295
335
344
312
304
313
352
344
304
295
335
352
319
304
312
348
352
316
304
344
355
316
312
295
348
327
287
287
327
339
319
295
295
339
344
307
287
312
335
339
304
291
319
348
335
295
295
348
353
319
301
295
335
348
280
376
632
287
284
319
312
271
280
316
335
318
287
295
334
335
295
287
312
335
327
287
295
327
348
319
295
304
344
344
304
295
319
352
334
295
304
344
359
335
304
295
344
352
316
271
318
639
316
318
286
271
286
319
319
287
287
335
345
319
295
295
335
327
287
287
327
348
334
304
334
352
319
304
305
344
352
312
304
327
359
353
305
295
319
348
319
286
271
481
384
312
295
270
280
318
319
345
295
305
344
345
304
295
327
352
335
304
305
352
353
319
305
312
352
339
268
449
448
291
319
287
271
287
319
319
284
286
327
344
319
295
295
339
335
304
287
305
335
335
295
295
344
352
319
295
316
352
344
304
295
335
352
327
304
319
348
348
307
295
327
334
295
505
364
287
287
319
304
271
284
319
316
291
319
344
319
291
291
334
335
295
295
344
352
319
295
312
344
335
304
287
318
344
344
295
300
344
352
327
291
305
344
348
280
419
551
327
271
271
318
327
312
287
295
339
355
335
312
307
344
339
287
287
318
316
335
295
304
319
359
608
286
304
319
291
271
287
327
335
304
287
319
352
344
287
287
312
335
319
287
295
327
352
319
295
304
352
345
304
291
319
352
327
304
312
335
344
312
291
313
335
295
463
280
319
312
270
271
316
327
318
287
295
335
344
312
287
287
319
327
287
284
312
344
339
295
287
319
344
344
295
295
334
352
319
304
313
355
355
319
300
312
348
327
304
527
352
280
287
319
319
280
281
327
344
312
295
312
352
344
295
295
319
344
319
300
304
352
352
312
304
319
352
335
304
304
344
355
327
304
304
352
295
332
312
287
312
344
352
312
287
304
335
335
291
287
327
345
334
295
295
344
352
316
295
312
335
300
295
344
359
344
295
295
344
352
316
255
335
639
287
284
312
295
255
255
316
327
319
287
284
327
335
304
280
295
334
334
287
287
319
352
335
295
295
339
352
319
295
316
352
352
304
295
344
352
344
312
319
352
344
304
305
305
355
639
271
271
295
319
316
280
287
344
344
316
295
319
352
335
295
287
319
344
339
295
291
335
352
319
295
312
344
348
304
295
327
353
344
305
304
344
353
344
304
295
327
352
547
304
291
352
344
304
304
335
352
327
295
312
348
352
312
295
327
355
348
319
304
319
352
334
295
287
312
527
334
304
271
255
291
316
319
280
280
327
339
319
287
287
327
335
295
280
295
335
334
287
287
319
344
319
304
287
327
344
319
295
291
344
352
319
295
312
344
335
295
287
287
408
639
271
271
275
316
319
287
280
319
344
327
291
295
335
344
304
287
295
335
344
312
287
312
335
352
312
295
319
352
344
312
344
368
327
295
304
344
353
304
327
504
364
319
319
286
255
284
319
327
304
287
312
344
352
305
287
304
335
344
304
295
327
352
327
275
312
608
319
295
255
280
312
327
316
286
295
327
352
319
291
304
339
335
295
287
312
344
344
295
287
319
348
344
304
295
327
352
327
295
313
352
352
307
295
319
352
312
304
600
295
319
295
271
275
319
327
304
287
304
339
344
305
287
304
334
334
295
295
335
352
316
295
312
335
304
295
345
352
319
304
327
352
344
304
295
335
352
295
451
504
304
284
318
312
271
275
312
334
319
287
304
335
348
316
287
287
335
335
300
287
319
344
344
295
287
316
344
344
295
287
319
352
352
312
295
337
295
348
334
295
300
344
344
304
287
304
339
352
312
287
305
335
344
304
295
319
352
335
300
300
344
359
334
304
295
339
352
319
255
463
391
319
312
255
255
291
316
319
280
280
327
344
316
287
287
327
316
287
295
335
344
312
291
312
344
344
295
291
327
352
319
295
295
348
355
307
291
295
344
344
280
319
639
295
304
316
284
271
302
327
335
295
295
344
352
318
287
295
327
344
316
291
316
352
352
304
304
339
353
335
312
304
339
352
335
304
319
352
352
312
304
327
352
304
440
568
327
287
271
295
319
319
287
295
295
344
319
295
304
348
352
305
304
327
352
319
304
291
344
319
376
639
271
255
304
319
312
271
319
335
327
287
287
319
335
304
284
304
344
344
304
287
305
335
327
286
284
319
344
327
287
287
335
352
327
291
287
327
344
295
399
639
287
284
319
312
271
280
316
335
319
287
295
335
339
304
287
295
327
335
304
287
319
352
344
295
295
335
352
319
304
312
344
352
312
312
352
353
319
307
312
352
316
369
633
304
312
319
286
271
312
319
327
300
300
344
353
319
304
287
319
339
319
304
295
339
345
312
287
304
352
312
295
287
319
316
271
280
312
335
319
295
305
335
327
287
287
319
335
312
287
304
335
344
305
287
312
334
339
305
295
319
352
335
312
307
344
344
300
291
327
316
409
639
280
280
319
312
271
280
312
335
319
287
295
327
335
304
284
305
335
319
291
295
344
344
312
287
312
335
344
304
291
319
352
335
304
312
335
344
316
291
318
339
312
494
428
319
312
304
271
271
319
319
287
284
318
344
335
295
287
319
319
287
305
335
344
316
295
319
352
335
305
305
348
352
312
304
332
353
344
300
291
327
348
327
255
399
551
304
312
327
352
319
295
312
344
344
300
291
319
348
327
295
304
353
353
319
295
304
344
344
280
369
600
312
316
280
271
304
319
312
284
295
335
339
305
291
312
335
319
287
291
327
344
316
287
295
335
344
312
295
312
344
339
295
295
334
355
335
304
295
327
344
304
287
543
312
255
255
295
316
312
280
286
327
316
287
304
334
335
295
287
319
344
335
304
300
335
352
319
295
304
339
335
304
291
319
352
327
287
295
319
348
319
271
448
463
271
319
316
280
284
319
327
295
287
319
344
348
312
295
319
344
318
295
295
344
319
337
280
432
536
319
271
287
319
319
286
287
327
344
327
304
305
337
344
304
287
304
344
344
305
295
319
348
327
295
300
339
352
316
295
318
353
355
312
291
313
344
344
284
291
591
319
287
263
319
327
304
287
304
335
335
295
287
319
335
319
287
295
335
344
312
287
295
327
335
295
287
318
339
335
304
295
344
348
319
295
304
344
344
270
455
435
300
316
295
255
270
305
319
312
281
304
335
339
304
287
305
334
335
295
291
334
348
319
304
312
348
344
305
295
334
352
319
305
316
353
352
319
304
319
352
335
295
312
348
352
316
287
304
335
344
312
295
319
352
335
304
295
335
344
318
295
312
344
352
307
312
344
316
295
295
316
451
543
319
255
271
295
319
312
280
291
319
327
291
287
319
335
318
284
287
327
339
316
287
295
335
348
318
295
312
344
344
304
295
334
348
335
307
316
344
335
295
295
316
319
543
327
263
255
287
318
319
284
280
319
335
319
287
304
335
339
304
287
295
334
335
300
287
319
348
335
300
295
335
348
319
295
312
352
348
304
312
334
352
319
295
304
352
319
352
639
284
284
319
312
275
280
319
319
304
295
344
327
295
304
352
359
319
304
304
344
344
304
281
472
415
284
312
280
271
300
327
319
287
287
334
352
327
295
291
335
335
287
284
318
335
319
287
295
327
344
316
287
295
334
348
319
295
312
352
344
304
287
316
344
335
280
440
483
287
304
318
286
270
287
319
319
287
287
344
344
319
295
300
344
335
304
287
312
344
344
300
295
319
345
319
304
304
344
348
316
295
319
355
353
305
291
319
352
344
639
319
319
280
255
287
319
327
304
287
312
335
335
291
284
316
327
304
284
291
334
339
304
291
312
344
334
291
287
551
316
271
287
319
319
287
287
327
348
327
304
304
344
344
304
287
305
344
348
312
295
327
352
335
305
312
352
352
304
304
335
355
344
313
312
344
352
304
304
319
312
353
496
352
327
295
271
286
319
335
312
287
312
352
359
327
304
304
335
327
284
287
319
344
327
287
291
319
344
319
295
295
335
318
305
327
344
312
287
304
327
287
487
355
280
271
312
319
295
271
284
319
335
313
295
319
348
319
287
280
316
327
312
287
300
335
335
300
291
334
344
319
295
312
348
348
313
305
337
348
312
295
319
319
313
572
304
319
295
312
348
344
304
295
335
352
327
300
307
339
352
312
312
337
353
319
312
312
348
316
398
632
295
307
319
287
280
313
335
319
295
316
352
344
304
295
319
335
304
287
307
335
335
295
295
337
319
300
312
344
345
319
312
335
344
316
295
316
319
295
423
504
280
295
312
287
271
287
319
327
295
295
334
352
319
287
287
319
327
304
287
312
335
334
295
295
335
339
312
287
312
335
344
312
304
335
348
332
300
304
339
319
352
639
280
280
316
318
280
275
319
335
307
287
304
339
344
295
287
295
334
334
287
304
319
348
319
300
284
353
639
304
284
271
304
319
312
280
295
327
344
307
287
305
327
335
295
287
344
344
304
295
319
348
327
300
304
348
352
316
295
319
355
359
304
287
305
334
339
287
286
472
408
280
304
271
280
313
327
300
287
304
345
352
312
304
319
344
319
295
287
327
344
327
295
295
344
344
305
291
316
344
335
304
295
339
352
332
304
312
344
344
304
295
295
408
632
280
271
287
319
319
280
286
327
344
319
291
305
339
335
304
284
312
339
344
304
295
327
352
319
300
304
344
348
305
295
319
352
335
319
353
295
327
313
287
295
334
334
287
280
312
335
319
287
295
327
344
316
295
305
344
339
295
291
327
348
327
295
312
355
352
319
304
304
344
319
305
512
376
319
319
284
270
295
319
318
280
295
319
339
318
295
312
344
334
295
287
319
344
344
295
295
332
352
319
295
305
348
344
304
295
327
352
344
312
312
344
344
295
304
300
344
519
359
284
280
319
319
280
284
319
339
319
304
312
352
348
304
287
305
327
304
287
319
339
335
300
287
319
344
335
304
295
334
353
334
304
286
316
335
318
255
433
419
271
312
295
255
280
295
352
335
304
295
335
352
319
304
312
353
353
313
295
312
344
344
271
448
463
287
319
312
280
280
319
327
295
287
312
344
344
305
291
319
335
316
287
304
335
344
305
295
318
344
335
304
295
344
352
319
312
319
352
327
295
304
345
312
384
556
319
287
280
316
334
312
287
304
344
359
335
316
316
352
295
287
304
337
344
304
287
312
335
334
295
295
335
348
319
291
304
335
319
287
280
286
387
575
295
319
287
271
287
327
334
304
295
334
352
335
295
295
335
327
287
287
319
344
335
295
287
327
344
327
295
295
335
295
316
286
287
344
352
327
305
319
352
327
287
284
319
335
312
287
304
335
344
305
287
305
335
344
305
295
316
353
352
304
287
312
335
344
255
415
492
327
287
313
327
304
284
295
335
348
318
312
344
319
287
287
327
344
319
295
295
344
344
312
287
312
332
344
312
295
318
335
319
287
295
327
312
385
543
327
275
287
319
312
271
281
319
337
319
304
304
344
344
304
287
300
335
344
305
291
318
348
335
304
295
335
352
319
305
335
353
335
312
295
327
348
284
415
543
327
280
280
319
319
287
284
327
348
335
304
316
295
352
339
291
295
344
344
312
255
271
632
304
305
319
284
280
319
335
318
295
319
352
344
291
305
335
312
287
295
335
344
312
287
304
335
344
312
287
318
348
344
304
287
295
335
312
270
463
384
327
307
271
280
304
335
319
295
312
352
359
334
305
319
344
319
291
287
327
344
319
304
304
344
344
312
295
316
348
335
312
312
335
335
291
295
335
327
255
428
448
291
319
287
280
304
335
319
295
304
352
355
327
304
304
339
335
304
287
305
335
335
300
295
339
348
316
295
312
348
344
304
295
337
359
335
312
344
327
335
286
287
327
334
295
287
312
344
335
304
295
327
348
319
295
304
344
348
312
295
327
359
344
304
295
327
348
327
270
510
319
255
255
312
316
305
280
287
334
337
312
295
319
344
335
291
291
334
344
319
295
312
344
348
304
304
334
348
327
295
312
339
352
312
305
344
352
319
295
312
348
345
275
399
543
316
275
304
327
312
284
287
335
348
319
312
319
352
327
291
287
319
335
316
287
304
334
335
304
319
335
313
287
304
335
344
312
304
316
344
327
295
291
327
312
448
540
305
255
255
305
312
295
271
287
319
319
344
304
313
345
352
312
304
334
352
344
312
312
348
335
307
304
305
355
639
270
255
284
316
319
287
280
319
344
327
304
302
337
344
312
287
295
335
344
312
295
318
344
344
304
295
335
348
327
304
316
348
352
316
312
344
364
335
305
316
352
348
305
280
408
575
291
280
316
319
287
286
316
335
319
295
352
344
312
287
304
335
335
304
295
332
344
319
295
312
344
344
304
287
312
335
327
295
312
335
335
291
287
319
327
287
463
448
287
316
305
271
255
295
319
319
287
291
327
344
319
295
304
335
327
291
295
335
335
345
305
319
312
384
639
312
319
300
271
281
319
327
304
287
312
335
335
295
287
319
335
312
287
295
335
344
312
291
316
344
335
304
295
335
344
319
295
312
355
348
318
291
312
344
312
316
590
304
280
271
312
319
312
284
304
335
335
295
295
334
344
312
287
295
335
335
304
287
319
344
335
304
295
334
348
319
304
319
352
352
304
295
327
348
304
359
575
319
295
271
287
319
327
295
287
316
352
348
305
304
327
344
316
287
287
335
344
319
295
304
344
344
304
287
312
335
335
305
316
344
332
295
287
319
316
305
449
352
327
295
295
337
344
316
287
300
335
344
312
287
305
334
359
319
295
295
335
344
305
255
483
295
295
316
286
270
295
319
319
286
287
335
344
312
284
287
319
327
287
280
305
335
327
287
287
327
344
319
295
304
355
352
319
295
295
344
327
255
588
287
280
312
327
307
280
295
335
352
316
304
319
353
335
312
287
304
335
344
305
295
319
352
335
304
300
344
353
327
305
319
352
352
304
295
335
352
287
409
551
334
287
284
316
335
319
287
304
348
359
348
312
312
344
335
300
284
312
335
327
287
287
327
344
304
312
271
327
327
295
287
316
344
344
300
287
312
335
327
287
287
335
344
319
295
295
345
348
305
291
319
353
353
304
287
305
335
344
280
304
639
286
284
318
295
255
271
312
327
319
287
286
327
335
312
281
295
335
335
295
287
319
345
327
295
291
337
348
318
287
312
339
352
316
287
304
337
319
384
639
271
255
295
319
316
280
284
334
344
312
287
295
327
337
305
287
295
335
345
313
295
312
344
344
295
295
352
352
304
295
335
352
319
287
271
432
515
255
312
313
304
255
271
300
334
327
287
287
327
339
319
287
284
319
319
319
295
295
319
536
319
287
255
280
312
327
312
280
295
335
344
313
287
295
335
335
295
286
316
345
339
295
291
335
352
319
295
304
348
348
312
295
335
352
332
295
295
344
344
255
463
359
295
304
319
287
271
302
327
335
291
295
344
352
319
287
287
327
335
300
286
312
344
344
295
287
318
344
344
295
319
352
344
304
312
327
352
319
295
316
327
316
465
472
271
312
312
271
255
280
316
327
304
287
304
344
344
295
287
304
335
335
287
291
319
352
327
295
295
339
352
312
295
313
352
344
304
313
327
353
335
304
312
334
352
319
287
295
327
345
316
295
312
352
348
304
295
327
352
319
295
304
352
352
312
295
335
352
335
295
295
344
327
291
527
319
255
255
295
316
312
271
271
316
335
319
286
287
335
339
312
295
334
344
312
287
304
344
348
312
287
304
344
352
312
295
316
352
335
287
287
318
344
335
255
448
440
284
319
304
271
270
316
327
312
284
295
335
344
313
287
304
335
344
312
291
316
352
352
304
304
339
352
327
295
312
352
352
312
304
327
359
353
305
304
327
353
344
263
415
551
327
286
271
307
319
319
287
304
348
316
327
291
295
339
344
319
295
312
337
335
304
287
287
384
639
271
275
268
300
319
304
271
287
334
319
287
287
327
335
295
286
312
335
327
287
287
334
344
327
287
287
327
344
319
305
316
348
327
295
295
335
312
327
639
287
287
319
304
271
280
319
335
312
287
304
335
335
295
284
318
335
319
287
295
335
344
316
295
312
344
344
304
295
334
352
327
304
319
352
352
312
295
319
335
305
480
451
271
319
316
280
280
319
334
295
287
316
344
352
312
295
319
344
327
291
302
344
352
319
304
319
355
353
312
304
364
355
319
281
295
344
352
316
304
319
344
327
287
284
318
335
319
287
295
334
344
312
287
295
327
344
312
287
305
344
348
312
287
304
335
318
291
527
327
255
255
312
319
295
271
286
327
335
295
284
312
335
319
287
286
327
344
319
295
295
344
348
305
287
312
335
344
312
291
319
348
352
304
295
335
352
319
295
280
423
600
280
255
280
312
319
287
280
316
344
332
295
287
319
344
327
287
284
319
348
335
300
327
352
327
295
304
348
352
319
295
327
355
352
312
295
319
352
304
391
615
291
312
319
280
270
312
327
327
287
327
312
344
352
312
300
319
359
352
305
295
319
348
319
280
448
449
255
318
316
280
271
305
319
319
286
304
344
352
312
287
304
335
335
295
287
319
344
335
295
291
334
344
312
295
305
344
344
304
295
335
352
327
287
291
319
345
287
472
415
319
304
312
271
255
287
319
319
287
284
319
344
319
287
286
335
319
287
295
327
344
318
295
304
348
352
305
291
319
352
335
295
300
345
344
304
287
302
339
312
432
639
280
271
312
319
287
271
295
327
337
305
287
295
335
344
304
287
304
344
352
316
295
319
352
344
304
312
305
600
287
280
319
335
316
287
305
339
359
339
312
319
353
344
304
287
295
335
337
304
287
304
335
344
304
287
304
335
335
295
291
335
352
319
295
304
344
339
300
284
255
412
480
287
287
271
312
319
287
295
337
352
319
295
304
335
319
287
284
327
339
319
295
287
319
335
304
280
304
335
334
287
287
327
339
335
307
302
335
344
312
287
263
352
639
319
287
255
280
312
319
295
280
312
335
319
291
295
335
335
287
286
319
344
327
295
295
339
352
319
295
316
352
345
304
295
335
353
335
319
304
335
352
319
304
316
304
344
319
291
304
344
344
304
295
319
352
327
295
304
344
352
312
295
319
352
344
300
312
335
327
304
271
271
319
327
295
280
295
335
344
316
295
319
344
319
287
255
287
318
327
295
280
295
327
327
286
284
319
335
319
286
295
335
353
319
295
287
327
344
291
280
560
316
295
255
280
312
327
312
284
295
339
352
319
295
312
335
319
284
287
327
344
316
287
287
335
344
319
287
295
327
348
319
295
312
353
352
319
295
305
344
319
312
556
319
268
255
287
319
318
280
280
319
335
305
286
305
334
334
287
280
352
327
304
335
591
280
280
316
327
295
284
295
335
344
312
304
327
352
327
295
287
327
348
327
295
304
339
352
313
295
312
344
335
304
295
335
352
334
304
312
335
335
295
304
312
335
451
451
270
316
304
271
280
316
327
304
287
305
344
352
305
287
302
327
327
286
284
319
339
319
295
287
319
344
319
295
287
327
344
335
304
295
335
339
312
287
255
319
639
327
300
280
284
327
327
291
287
319
352
344
304
287
335
327
287
287
319
344
327
291
291
335
344
312
287
304
335
352
319
286
287
335
335
295
252
255
608
327
295
255
327
295
312
345
352
305
295
334
352
344
316
318
352
344
300
304
319
312
396
547
327
280
295
327
327
295
287
327
353
352
319
312
335
348
307
284
287
335
344
312
287
304
335
344
307
287
295
335
344
312
295
319
345
335
295
287
319
319
271
432
463
295
319
304
271
284
319
335
312
287
316
352
359
319
295
327
335
300
287
312
335
327
287
287
335
344
319
295
295
344
344
312
287
295
334
332
287
287
280
295
575
280
319
319
284
271
305
327
332
295
304
352
353
327
287
287
319
335
313
287
304
339
344
312
287
304
344
335
519
305
295
319
312
280
304
337
348
307
291
319
344
327
287
284
327
344
334
304
295
337
348
316
295
312
345
344
295
295
327
352
319
312
319
352
335
304
295
344
319
305
415
497
287
312
327
312
280
339
352
335
312
319
359
335
304
286
300
344
344
304
287
312
344
335
304
284
300
335
327
287
287
319
344
335
304
295
335
344
312
287
280
319
547
287
312
319
281
255
287
319
334
307
287
312
344
348
304
286
304
344
352
305
291
319
352
335
295
295
335
348
316
287
304
337
352
316
295
319
352
355
312
295
319
352
344
295
295
339
327
287
287
327
345
327
295
295
344
344
318
287
304
344
352
316
291
316
348
344
312
305
344
316
287
255
419
440
287
271
284
319
327
291
284
312
344
344
304
304
334
348
319
284
280
319
335
312
286
304
339
344
305
287
305
334
335
295
291
335
344
319
295
319
348
344
300
291
327
344
280
423
515
327
280
287
327
319
287
287
327
352
344
312
319
355
344
305
287
295
335
344
312
287
305
335
344
312
287
307
335
344
312
295
319
352
344
300
312
334
352
319
295
316
335
312
451
515
304
284
318
316
275
280
345
319
300
344
344
312
295
312
353
345
312
295
312
348
335
271
448
463
280
319
305
271
275
312
327
305
287
304
344
352
319
295
307
344
327
295
295
327
345
316
295
305
335
335
295
300
339
348
316
295
316
344
352
313
300
334
344
319
295
280
327
505
355
280
255
280
304
319
287
280
312
335
332
295
312
335
327
287
280
319
335
312
286
295
327
335
302
287
316
335
319
291
304
335
335
295
295
345
348
312
287
304
312
515
352
255
255
291
316
312
271
280
312
335
319
287
295
319
319
286
280
316
327
305
286
304
335
335
295
295
312
408
291
304
271
287
319
327
295
287
316
344
352
304
300
327
348
319
295
295
344
345
316
295
319
352
344
295
300
344
353
327
312
312
352
352
312
312
359
355
319
305
316
352
319
271
451
408
319
319
287
284
319
335
307
287
319
352
364
335
312
319
345
319
295
287
319
348
319
304
295
344
344
312
287
335
344
319
295
312
345
339
295
287
312
335
295
335
527
319
255
271
312
316
280
271
304
335
335
295
295
339
344
304
287
287
335
337
305
287
304
344
352
312
291
319
352
337
295
295
335
352
319
304
319
352
344
304
295
348
327
291
287
319
344
334
300
295
339
352
318
295
312
348
344
295
295
327
352
327
295
318
352
352
304
295
319
348
305
368
639
304
307
318
271
271
312
327
327
287
291
334
348
319
295
295
335
305
295
327
352
319
304
312
339
352
304
295
319
352
335
304
312
348
344
307
286
300
335
327
252
408
496
319
300
319
304
280
295
327
335
304
312
344
359
335
295
287
319
335
312
286
295
335
335
295
287
319
344
334
300
295
335
344
319
304
319
352
344
300
295
327
344
280
387
568
319
312
280
291
327
327
295
291
335
352
319
318
348
327
312
312
344
335
304
295
327
305
384
639
284
280
312
304
280
287
319
327
302
291
335
313
287
291
319
327
304
291
319
339
319
295
305
339
344
305
295
319
327
319
305
319
327
305
295
319
332
280
384
551
319
286
284
319
319
295
287
327
352
344
319
327
352
335
295
287
313
327
319
291
312
327
327
295
304
335
335
304
295
327
344
319
300
312
327
319
295
295
305
352
512
384
312
312
291
271
286
316
319
287
287
319
344
319
304
295
327
327
287
287
319
335
319
295
307
335
327
295
304
335
335
307
344
352
312
327
344
316
287
284
319
319
287
287
319
335
312
287
304
327
334
295
291
319
335
312
312
327
335
295
291
327
339
286
399
615
287
287
313
295
275
295
319
318
291
313
344
335
300
291
319
327
304
287
316
335
335
295
312
327
335
304
304
327
344
319
304
319
355
344
319
304
316
344
327
263
423
455
291
319
295
280
304
327
319
295
312
348
355
335
312
319
335
316
287
295
334
335
304
295
327
337
316
295
334
334
304
304
335
339
316
295
304
335
319
255
415
451
287
312
304
280
275
312
319
287
287
319
344
334
304
304
339
319
304
312
344
335
307
271
384
615
318
295
271
284
313
319
291
287
319
344
327
302
295
327
327
295
287
319
335
319
295
312
335
327
295
304
335
335
304
304
327
345
319
312
327
348
319
307
312
344
312
334
600
312
312
280
280
316
319
287
287
319
344
327
305
313
335
319
295
295
335
334
304
304
335
316
304
327
344
327
304
312
332
344
318
316
335
344
319
304
313
344
304
348
515
344
281
287
312
304
275
287
319
319
291
304
335
335
302
295
319
319
287
287
327
344
319
300
304
335
335
295
295
335
335
312
304
335
319
284
304
327
327
304
295
327
334
295
287
312
327
319
295
304
335
335
300
300
332
335
305
304
327
339
319
304
312
352
344
307
302
319
344
319
280
480
385
312
304
271
280
304
319
295
284
312
332
304
295
327
335
304
287
316
335
335
304
305
335
344
312
304
327
344
319
304
295
335
335
319
305
344
335
319
295
319
312
287
455
403
312
312
280
287
327
327
304
295
335
359
352
327
327
352
335
295
295
334
344
312
295
319
344
335
304
302
332
344
319
304
318
344
353
319
305
319
344
319
312
280
319
575
287
287
319
313
295
335
327
295
295
319
335
304
295
335
335
312
287
304
327
319
255
376
513
312
263
280
312
312
291
319
335
312
304
319
327
304
284
287
319
319
287
291
319
327
304
280
304
319
312
286
295
327
319
312
300
327
327
304
287
312
287
368
638
287
281
295
319
316
287
305
327
352
319
316
335
352
319
295
304
334
334
304
304
344
344
319
304
319
352
335
312
312
344
344
319
319
339
344
316
305
327
339
280
432
504
319
304
319
318
287
295
327
335
318
316
353
359
335
305
312
332
312
287
295
319
334
304
287
319
327
312
318
319
286
300
327
335
312
312
344
344
295
287
305
327
319
295
295
335
327
295
295
327
335
307
295
319
335
316
295
319
344
327
295
295
327
335
255
385
519
319
271
280
312
319
295
287
319
344
339
312
312
344
335
300
287
304
327
319
295
304
335
335
304
295
334
335
312
304
319
344
319
313
319
344
327
312
304
335
319
280
451
408
312
312
284
291
319
319
295
305
335
348
319
319
352
352
319
295
305
332
319
312
337
339
304
304
327
344
319
305
313
344
344
316
312
335
327
304
295
319
287
415
527
312
271
287
312
312
284
312
344
332
304
312
335
352
327
304
319
344
334
305
271
284
625
319
312
286
287
319
327
304
287
316
339
348
316
305
327
327
287
284
312
327
316
287
295
319
327
300
287
312
319
316
287
304
335
339
304
287
307
327
327
255
335
632
280
271
300
319
295
281
304
327
319
295
304
335
335
304
295
319
327
312
319
337
318
304
312
334
335
304
312
327
348
319
304
316
339
332
312
255
281
639
316
318
287
280
304
319
307
291
319
344
327
312
312
335
319
295
304
334
327
304
305
327
344
312
304
319
344
335
312
312
339
352
316
295
348
344
312
304
319
319
291
295
327
332
304
295
327
339
319
304
312
335
334
305
313
352
348
312
304
334
339
319
287
304
511
327
319
295
280
305
319
316
295
319
344
344
319
327
352
348
318
312
348
327
319
335
355
352
319
319
352
355
332
327
352
355
335
319
319
344
335
284
440
508
305
319
316
287
295
319
327
316
305
344
352
327
319
327
335
312
291
319
335
318
304
318
335
319
304
316
335
327
305
319
353
335
316
304
318
335
318
252
432
419
271
304
280
280
312
316
287
286
318
327
318
304
318
334
319
287
291
327
312
608
304
316
304
284
295
319
319
295
316
335
327
312
319
335
318
287
291
319
319
295
304
319
295
295
319
319
295
319
327
319
295
295
327
327
255
335
543
304
271
255
287
304
295
280
295
319
319
295
316
334
316
287
287
313
319
287
287
316
319
304
287
312
327
318
287
295
327
344
312
291
304
327
319
286
270
463
368
287
280
280
312
312
284
287
319
327
312
300
319
339
319
295
287
318
319
305
295
319
335
312
295
319
335
319
300
316
344
335
319
312
335
327
304
304
335
302
376
560
319
287
286
312
319
312
344
335
312
312
335
318
295
304
335
287
384
504
312
280
304
312
287
284
312
327
319
304
316
344
335
304
286
295
316
304
286
295
319
316
287
291
319
319
291
295
319
327
307
295
319
319
291
295
319
284
327
575
305
287
271
284
312
318
287
287
319
335
318
295
305
319
295
280
287
318
312
284
291
318
316
287
287
318
319
287
287
312
335
312
287
291
319
318
287
255
295
591
300
271
271
305
316
295
287
312
335
304
295
319
319
287
286
316
319
304
291
319
327
304
291
319
334
312
287
295
327
335
295
287
318
327
318
271
255
344
335
313
304
335
344
327
312
319
344
335
312
319
352
335
319
319
345
344
319
312
335
344
295
455
487
291
316
312
287
287
319
327
312
304
327
348
334
312
312
334
318
287
295
319
319
295
304
327
327
295
295
319
327
304
295
319
352
319
295
295
327
327
304
255
319
609
319
312
284
287
319
319
295
304
344
319
295
295
319
312
287
295
319
319
295
304
327
327
295
295
327
319
304
287
312
335
319
287
295
319
327
305
255
355
608
319
304
280
284
316
316
287
295
327
344
319
304
312
327
319
300
295
327
335
305
312
339
344
611
319
316
287
287
319
327
312
300
319
348
335
316
312
339
327
304
295
327
335
316
304
319
339
327
304
304
335
339
316
304
316
344
335
319
316
335
332
304
304
334
312
319
455
419
271
287
271
318
319
295
304
335
335
312
304
319
319
295
291
319
319
291
304
327
319
287
287
312
319
295
287
312
327
318
291
305
339
327
305
287
312
334
319
271
463
408
287
312
295
280
287
319
316
287
304
327
339
319
312
327
335
316
287
312
327
327
295
304
334
335
307
304
319
334
312
304
319
344
334
312
318
339
327
304
304
327
352
295
300
335
334
305
312
344
344
312
305
335
344
312
302
319
344
344
312
304
327
335
312
295
639
312
286
271
280
313
318
291
291
332
337
316
302
316
319
295
271
284
313
318
287
286
319
327
312
287
304
335
335
304
295
339
352
319
295
312
335
327
271
319
639
300
304
305
271
270
287
316
304
280
287
319
316
284
271
295
304
284
270
295
316
304
280
284
312
312
275
275
312
312
275
280
307
307
280
255
271
300
263
335
519
275
248
231
255
284
280
254
255
304
312
287
280
295
313
287
271
275
307
318
287
280
344
319
318
355
355
327
319
352
384
384
352
352
384
384
335
316
319
352
339
305
316
344
344
312
304
327
344
319
295
291
335
335
304
287
319
344
327
271
353
639
295
304
318
287
280
312
327
307
287
287
327
335
304
287
304
327
319
291
295
334
335
304
295
335
335
312
300
327
353
334
305
295
319
327
287
275
511
312
284
304
287
255
263
304
316
300
280
295
319
312
284
295
316
312
280
286
319
319
287
284
316
319
287
316
327
319
287
284
316
327
280
319
504
312
270
281
287
248
243
284
291
280
255
280
312
318
287
275
312
318
305
639
312
300
271
270
304
318
295
284
304
327
319
287
280
305
312
284
255
280
304
312
287
280
312
319
305
287
316
339
327
304
287
312
334
287
287
551
312
287
280
305
319
312
287
312
335
335
313
319
352
344
304
295
319
339
319
312
319
352
344
312
318
352
352
319
316
364
355
327
313
319
353
352
284
312
319
319
287
281
316
319
287
281
305
319
304
280
287
304
271
240
227
255
255
224
224
254
252
216
207
231
248
231
207
216
255
248
216
199
224
248
231
163
280
449
240
199
224
248
241
224
231
275
295
280
271
304
359
327
316
316
318
399
611
335
355
352
319
319
355
368
348
335
355
384
384
344
352
384
384
352
353
384
391
384
359
384
396
384
352
352
387
408
384
359
376
391
384
355
335
344
575
353
376
344
334
387
399
368
359
396
414
391
359
359
387
384
359
352
384
391
384
352
352
384
384
352
352
384
384
359
355
384
384
352
352
385
376
327
540
412
368
384
391
368
359
384
408
399
384
387
415
408
371
359
384
384
345
344
384
387
368
345
355
384
384
352
352
384
384
352
345
368
387
364
335
334
364
368
335
295
384
639
319
312
304
255
271
287
284
252
255
287
287
255
255
287
312
287
255
255
287
295
255
240
414
384
231
254
255
287
271
252
255
304
305
284
270
281
305
304
271
273
300
319
304
271
281
312
318
284
284
316
327
312
287
304
327
327
304
312
327
344
319
304
316
334
305
449
536
319
295
319
319
295
312
344
355
335
327
355
384
364
335
335
368
368
339
344
384
384
352
344
376
384
355
345
369
384
368
348
359
387
384
355
353
391
408
368
353
368
391
384
335
339
600
353
319
327
355
359
327
327
368
384
359
348
364
387
368
352
384
399
368
352
376
368
335
295
376
543
316
327
319
295
295
327
335
312
312
352
355
327
319
327
344
319
295
291
327
327
304
295
327
335
312
295
319
335
316
295
316
335
319
304
312
344
352
312
304
327
344
327
284
319
624
318
312
280
280
312
318
287
287
319
335
316
295
312
327
316
284
287
319
319
291
295
319
319
295
304
327
327
295
295
327
335
305
304
327
344
319
312
319
344
327
304
304
337
312
384
639
287
318
327
307
295
319
352
344
316
319
352
344
312
304
327
344
319
304
304
335
335
304
304
335
344
319
304
318
344
337
313
344
352
319
318
352
368
352
327
344
355
348
312
312
344
352
319
312
344
353
344
316
319
352
352
319
312
345
353
327
313
335
359
352
319
312
335
352
312
287
463
432
280
295
271
284
312
316
287
284
318
327
316
295
305
319
304
280
287
316
304
280
287
319
316
287
287
316
319
287
284
316
319
304
319
327
313
287
295
319
319
270
448
432
270
295
281
270
287
305
287
280
284
319
319
287
287
319
319
287
284
312
319
305
295
319
335
312
304
319
344
327
305
312
344
344
307
316
352
344
312
307
335
344
295
312
560
344
352
344
316
319
352
352
319
316
348
353
335
334
352
387
385
352
348
384
391
369
319
419
604
353
319
319
355
359
339
327
352
384
368
344
355
376
359
327
319
335
355
344
319
327
352
352
327
319
352
335
319
344
368
352
319
318
348
353
312
352
527
352
319
312
287
280
312
319
304
291
319
335
319
304
319
334
316
287
295
319
319
295
300
332
327
302
304
327
335
312
300
319
335
319
312
319
327
304
295
319
327
281
448
483
287
287
304
284
271
295
316
312
287
304
327
335
304
287
312
319
304
287
304
319
316
291
318
319
305
295
312
284
271
287
312
305
281
287
319
327
312
295
312
319
295
287
304
319
312
295
319
319
304
319
344
327
312
312
344
352
319
316
335
335
312
318
344
312
415
551
316
284
281
312
319
287
287
319
335
319
312
327
345
319
295
304
327
327
304
304
335
335
312
305
335
335
312
312
344
344
312
312
348
355
319
312
319
344
335
291
255
531
319
287
287
319
319
304
304
332
344
327
319
344
355
335
312
304
319
327
312
304
327
344
327
312
318
344
335
312
312
344
344
312
312
335
352
319
307
319
344
319
312
639
287
305
344
319
312
319
344
334
312
319
348
339
312
316
344
355
319
312
319
352
334
312
287
408
591
295
281
307
319
295
287
312
334
335
312
319
353
344
312
295
316
335
319
304
318
335
335
305
319
344
334
305
312
344
344
312
312
352
355
319
312
319
348
335
295
286
472
440
280
287
280
316
319
291
287
319
335
319
305
327
348
319
304
304
327
327
295
304
334
335
312
307
335
335
312
312
344
335
312
304
327
319
304
313
335
327
275
255
583
312
312
284
287
319
327
295
287
319
344
348
316
305
319
319
287
287
319
327
304
305
319
344
639
295
304
318
295
286
312
327
319
304
316
344
344
312
305
327
335
304
295
327
335
319
312
335
344
319
312
319
348
319
312
319
352
339
319
319
352
335
313
312
344
319
344
487
408
316
316
287
291
319
327
312
304
327
352
344
319
319
348
335
304
295
327
335
312
304
319
339
327
304
305
327
313
305
327
352
319
304
316
344
335
312
270
334
632
319
312
280
280
312
319
295
295
327
344
319
312
319
332
307
287
304
327
327
304
304
327
335
312
304
319
335
319
304
319
344
335
319
312
344
335
312
304
319
287
327
302
319
335
318
304
319
344
327
305
312
344
335
312
305
339
348
327
313
334
344
319
312
319
312
319
561
319
291
287
318
327
316
300
319
352
352
327
334
359
345
312
304
316
335
319
304
319
335
307
316
344
337
312
312
344
352
319
312
335
344
319
312
319
304
348
519
319
284
295
313
295
286
304
327
327
307
319
352
344
305
304
319
319
295
304
327
327
305
304
327
335
313
304
327
339
319
312
319
344
344
313
312
335
327
305
318
312
280
526
319
287
287
316
319
295
295
327
339
319
316
335
352
327
304
312
327
319
319
348
344
313
271
391
540
304
304
319
312
287
312
335
335
312
319
355
352
327
312
327
327
312
327
344
319
305
319
344
334
312
318
344
344
316
316
344
355
327
316
312
335
318
304
284
344
511
344
291
287
316
327
316
295
319
344
348
327
335
359
348
312
295
312
327
312
295
312
334
319
300
312
327
327
295
304
335
335
305
304
335
352
319
304
312
334
327
284
255
496
319
312
307
284
287
316
319
295
295
334
344
319
312
327
335
305
287
304
319
318
291
312
335
319
295
312
327
327
304
304
334
335
305
304
335
319
312
319
312
300
319
319
291
295
327
327
304
304
327
335
312
304
319
339
319
305
316
339
335
312
319
352
344
312
305
335
344
291
352
615
316
316
287
287
319
327
316
304
319
352
344
316
318
335
327
304
304
335
335
312
307
344
339
312
312
334
344
316
312
327
348
319
312
319
353
344
319
312
335
344
319
255
387
519
313
295
319
312
286
295
319
334
316
316
348
352
319
304
318
327
312
287
304
327
327
304
295
335
319
295
316
335
327
304
312
344
345
312
304
319
335
319
280
270
519
295
295
312
287
280
295
319
312
295
327
344
312
312
344
344
312
319
344
344
316
304
319
344
305
408
620
312
313
287
284
304
319
312
295
319
344
327
312
312
335
319
295
304
327
327
304
312
334
339
318
307
327
344
319
312
319
344
335
312
319
344
352
319
316
344
344
312
312
312
304
433
481
304
318
319
295
295
327
335
312
319
352
359
335
327
334
305
291
316
335
319
304
319
335
319
304
312
335
327
304
307
327
327
300
305
319
327
304
295
319
332
275
316
536
316
280
295
318
305
287
295
327
335
316
319
352
348
312
295
316
319
304
287
318
334
319
300
316
344
639
284
281
312
312
286
287
319
327
312
304
319
335
319
295
305
319
312
287
312
327
327
304
304
327
335
312
304
327
337
319
304
312
334
335
304
319
335
335
312
305
335
334
280
384
608
319
295
291
327
319
304
312
344
344
319
305
327
327
305
295
319
335
319
304
312
335
319
295
312
332
327
305
316
344
327
312
319
352
344
312
312
335
344
318
280
448
508
286
319
312
287
287
319
327
312
304
319
348
335
312
312
334
319
300
304
334
327
304
304
335
335
312
304
319
335
316
304
319
339
327
312
319
335
327
304
316
352
316
295
312
327
316
295
312
327
327
304
312
327
332
305
312
335
327
304
312
327
344
319
305
339
319
255
448
387
312
304
286
287
319
319
295
304
335
345
319
312
335
335
304
287
304
319
305
291
312
327
319
295
312
327
319
304
312
327
335
312
312
335
344
318
312
334
335
312
316
316
295
428
496
295
319
312
287
295
327
335
319
319
352
359
344
327
327
344
312
295
312
335
327
304
312
334
335
307
312
335
327
304
312
335
335
316
319
335
327
304
304
335
335
270
368
551
319
287
286
316
319
295
295
327
344
319
327
334
307
316
327
319
300
316
304
280
487
352
295
305
312
287
287
318
327
312
304
319
352
344
312
305
327
319
287
287
319
327
312
295
316
335
318
295
312
334
327
304
312
327
344
319
304
319
335
319
304
304
295
368
608
307
319
295
287
312
327
319
304
319
352
352
319
312
327
327
295
287
316
327
319
304
312
335
335
305
318
339
334
312
316
344
352
319
312
327
344
319
305
295
327
462
462
295
319
304
287
335
344
319
319
344
353
335
312
295
312
319
295
287
316
319
304
291
312
318
287
287
312
319
304
295
319
319
295
312
352
327
295
304
319
319
295
312
327
327
304
312
327
327
305
312
334
334
304
316
344
339
312
304
319
337
304
284
536
312
287
286
312
319
304
295
327
344
335
319
332
352
334
304
295
319
319
295
312
327
334
307
313
339
335
312
305
335
335
312
312
348
352
312
305
335
335
316
312
304
359
639
287
287
327
327
312
319
359
355
327
319
335
337
305
295
312
335
327
312
319
335
319
304
316
335
327
305
318
344
335
319
319
344
335
316
305
335
316
286
423
463
286
319
295
287
312
327
319
304
319
352
355
327
316
319
327
327
319
335
318
302
287
312
551
281
312
316
287
284
312
327
316
300
319
352
344
316
304
319
327
304
287
305
327
327
304
304
335
335
305
304
319
335
312
295
319
335
319
312
327
344
319
304
312
334
639
286
280
312
319
295
287
319
344
344
316
318
348
335
295
284
295
319
312
287
304
327
327
304
295
319
334
312
300
319
335
318
295
319
335
335
316
319
337
319
305
316
327
305
451
497
286
305
312
295
280
304
319
316
300
319
344
335
312
312
339
327
304
295
319
335
319
304
319
344
335
305
312
335
335
304
316
335
335
295
334
345
332
319
344
352
327
295
300
319
319
295
312
335
327
304
305
327
327
304
300
327
335
312
327
335
312
304
319
335
287
287
551
316
281
280
316
319
286
284
312
327
319
312
319
344
319
295
291
319
316
287
295
319
327
305
300
319
335
312
295
319
335
319
304
316
352
335
312
304
327
335
316
255
384
540
319
287
305
319
304
287
312
335
335
316
319
353
345
312
295
312
327
316
291
312
335
327
304
312
327
335
307
305
335
327
305
312
352
344
305
305
335
334
304
295
313
463
531
312
280
280
312
319
287
318
319
332
305
316
352
344
305
295
319
337
304
287
423
433
280
295
280
295
319
312
287
312
327
344
319
316
335
344
312
287
291
319
319
295
304
335
327
304
295
327
335
312
304
319
335
316
304
327
335
319
295
312
335
319
255
408
463
287
316
312
284
286
318
319
302
304
344
352
319
312
319
334
304
287
295
319
319
295
312
334
319
295
304
335
327
304
295
327
335
312
304
327
352
319
300
304
335
335
281
252
537
304
281
312
319
304
295
327
344
327
312
319
344
319
295
287
312
319
304
287
312
332
319
295
304
335
327
304
312
319
295
304
335
344
319
318
352
368
353
319
318
344
327
304
295
319
344
319
312
312
344
327
304
304
327
335
312
304
319
335
319
312
327
335
312
304
319
319
255
423
432
287
312
287
280
304
319
312
291
319
344
344
316
319
344
327
295
287
312
327
319
295
304
335
327
304
295
327
335
304
295
319
335
312
327
339
319
304
304
335
327
271
440
455
280
307
295
280
284
305
304
286
287
319
327
305
295
313
319
295
284
305
319
312
291
318
334
319
295
316
335
319
304
312
335
335
304
304
335
335
316
316
335
335
304
304
335
352
295
304
327
327
304
304
335
344
319
304
316
335
327
304
312
335
335
312
312
355
352
319
304
319
344
335
284
344
524
316
287
312
313
286
284
316
319
305
304
327
344
319
304
304
327
319
295
295
327
312
295
319
335
318
295
312
335
319
304
312
335
344
307
304
319
327
312
280
255
463
344
295
280
281
312
312
287
287
319
335
319
313
344
352
319
295
305
327
316
295
304
327
327
304
304
334
337
316
304
318
337
335
312
312
335
345
319
312
327
339
318
305
295
368
639
286
284
284
316
312
287
287
319
335
318
312
335
344
319
335
344
319
312
316
345
312
287
448
414
287
305
287
287
319
327
312
295
319
348
348
319
319
319
287
295
319
327
305
295
319
335
316
295
319
335
319
295
312
327
327
312
312
327
313
295
312
327
284
369
583
307
316
286
284
312
319
304
295
334
352
335
312
319
335
312
287
300
319
319
295
312
334
327
304
304
335
335
312
312
335
335
305
312
352
339
307
305
335
335
305
271
319
639
327
305
284
287
319
319
295
304
344
352
319
312
319
334
304
287
312
319
319
295
313
339
332
312
305
335
335
305
312
344
335
319
327
327
335
355
344
312
287
304
327
327
304
302
319
334
304
295
319
334
312
291
316
334
319
305
316
327
312
295
312
319
271
412
487
304
295
316
291
284
312
327
319
304
316
345
352
318
304
319
327
312
295
312
335
319
304
312
335
327
304
305
327
335
305
312
339
352
312
304
319
335
319
295
271
391
560
280
295
318
300
286
304
327
327
305
319
352
344
312
295
319
319
291
291
319
327
304
295
319
335
312
316
332
312
291
319
348
327
295
295
327
335
295
284
480
384
287
280
255
280
305
307
286
287
318
335
319
304
319
344
304
302
319
335
312
255
384
519
304
287
318
319
287
287
327
335
327
316
344
353
334
304
291
319
319
295
295
327
327
304
295
327
335
312
295
319
335
319
295
319
352
327
295
295
327
335
300
249
460
355
316
295
280
291
319
316
287
304
334
344
319
313
327
344
319
291
291
319
319
295
312
335
327
295
327
335
312
304
319
335
318
295
319
348
327
304
304
335
344
280
287
583
305
312
280
284
316
319
295
295
334
344
319
312
327
344
312
291
295
333
327
304
304
335
344
318
304
319
344
337
312
312
344
344
316
312
335
335
313
344
359
345
319
327
339
334
304
287
316
335
319
304
312
335
335
304
304
335
335
305
304
327
335
312
304
327
335
316
295
312
327
319
255
334
542
316
280
287
319
312
287
295
327
344
319
316
335
318
287
295
319
327
304
295
319
339
319
304
305
334
334
304
304
319
327
304
295
319
344
319
295
300
327
327
300
271
352
639
319
307
271
280
304
319
305
287
312
335
334
304
304
327
327
295
287
318
335
319
295
312
335
327
295
304
335
335
305
305
335
335
304
304
335
339
318
316
327
344
319
304
313
335
305
408
639
327
305
312
344
335
312
304
327
344
327
304
312
335
335
312
312
352
352
312
304
319
337
319
295
568
318
284
304
319
316
295
316
344
348
319
319
353
352
318
287
286
316
319
295
291
319
327
304
295
318
327
312
295
316
335
316
295
313
335
334
312
313
335
319
295
316
334
280
399
551
319
291
280
312
319
304
291
319
344
327
312
319
352
327
295
291
319
319
295
304
335
335
304
304
327
335
312
304
319
339
319
305
312
344
335
312
319
344
339
305
304
327
339
295
415
600
312
312
280
275
304
319
295
287
316
335
305
313
344
307
318
344
344
316
304
319
344
307
387
608
312
307
280
284
319
319
295
295
334
344
319
307
327
337
319
287
295
319
335
312
295
319
335
319
295
318
335
319
304
312
335
327
304
312
344
344
312
295
318
335
319
255
359
531
316
280
295
319
312
287
295
327
337
319
316
335
352
319
291
295
319
312
287
304
327
334
304
295
319
334
305
295
319
335
316
295
316
335
335
304
312
334
327
300
300
295
335
608
312
312
286
287
327
335
318
312
344
352
318
295
304
319
300
281
295
319
312
287
304
327
319
304
295
319
327
304
284
319
319
287
304
334
344
319
318
339
352
319
295
304
319
319
295
316
327
319
304
307
327
334
304
304
335
335
312
312
335
344
316
319
348
345
319
304
319
344
304
335
472
369
318
304
286
295
319
319
295
316
339
348
319
319
352
344
304
287
295
318
319
287
295
319
319
295
295
327
319
295
295
319
327
304
319
334
316
295
305
327
291
280
472
355
316
295
280
286
312
305
280
287
319
333
318
305
334
327
295
286
304
319
304
287
312
327
319
300
295
319
327
304
295
319
334
312
304
319
352
327
304
312
334
335
304
255
319
319
304
295
327
335
312
304
319
335
318
295
319
337
327
305
312
352
335
305
304
319
335
295
255
527
312
280
284
319
319
295
295
327
335
316
319
352
352
316
295
313
319
304
287
316
335
319
304
313
334
339
316
305
327
304
344
625
287
284
316
319
295
286
316
335
327
305
335
345
319
295
295
319
319
295
312
337
339
312
312
344
352
319
312
344
352
344
334
348
353
335
319
327
353
316
428
575
335
316
304
319
344
335
318
327
368
369
352
344
352
352
316
300
319
335
319
295
316
335
319
304
307
327
319
305
312
344
316
304
319
339
319
295
287
316
319
291
287
312
327
313
291
304
327
319
295
295
327
319
312
305
319
287
291
280
287
527
291
281
255
286
305
316
287
287
319
327
319
295
305
319
304
280
287
316
312
284
287
319
319
291
295
319
319
291
304
327
319
304
295
335
337
312
295
318
335
319
255
287
632
295
305
316
295
287
312
335
319
312
327
352
335
312
304
327
319
304
295
327
335
312
304
319
335
319
304
319
335
319
304
312
344
335
319
318
335
335
312
312
335
319
255
408
480
304
319
312
284
287
319
327
312
312
368
334
295
335
327
300
287
316
327
287
312
542
312
280
284
312
316
287
287
319
335
319
312
335
352
319
295
304
327
319
295
304
332
335
304
295
327
335
312
304
319
337
319
304
305
334
339
319
304
318
335
319
295
295
286
384
600
287
295
313
295
280
304
327
327
304
312
335
339
312
291
304
319
304
287
312
327
319
304
305
327
327
304
304
335
335
312
304
327
339
319
307
327
348
332
305
312
344
335
271
319
639
312
319
295
287
319
335
335
312
334
348
327
295
295
319
312
287
287
319
327
304
295
318
327
316
291
312
335
312
280
316
319
287
287
319
339
327
312
316
344
319
295
286
312
319
312
287
312
327
319
304
295
327
327
304
295
327
335
312
295
319
352
319
304
304
327
335
287
255
511
319
284
305
319
295
287
312
327
327
312
327
348
344
312
305
327
319
295
295
327
334
305
312
335
334
304
305
332
335
305
312
335
334
304
335
344
319
304
312
335
287
335
639
287
286
318
319
291
287
319
334
319
312
327
348
319
295
304
319
319
295
313
335
327
305
319
344
332
312
316
344
339
305
312
344
348
316
319
344
348
319
312
327
344
287
344
526
327
335
318
295
312
335
319
295
304
327
327
295
304
335
345
312
295
307
327
319
287
255
415
455
280
287
280
312
319
291
287
316
335
319
312
327
352
319
295
295
319
316
287
295
319
319
295
304
327
304
287
312
327
319
304
312
327
327
300
295
327
327
255
414
480
304
287
304
287
280
295
319
312
295
319
344
335
312
304
319
319
287
287
319
327
312
295
318
335
319
295
316
335
319
304
312
335
335
304
316
344
344
312
304
316
344
295
295
568
312
304
280
295
319
313
287
304
335
348
319
319
327
344
319
287
295
319
327
318
332
337
295
287
432
432
295
287
304
319
304
287
304
335
334
313
327
352
352
316
304
319
319
291
319
319
304
295
327
327
304
295
319
334
312
295
319
335
319
312
316
319
295
295
327
312
255
481
319
284
281
312
316
287
287
319
334
319
312
335
352
319
304
312
327
319
295
304
334
335
304
304
334
335
305
304
327
339
319
305
316
339
327
304
316
335
344
312
304
319
335
284
316
639
295
295
316
304
284
304
327
327
312
319
352
344
312
295
319
319
295
291
319
319
295
312
327
327
295
312
327
335
305
304
327
327
312
312
312
312
348
355
327
319
319
344
313
287
291
318
335
316
295
318
327
319
295
312
335
319
304
305
332
334
304
305
335
344
312
291
313
327
319
255
327
519
312
284
304
312
291
287
312
334
319
312
327
352
335
305
312
327
316
287
295
319
327
304
300
319
335
312
295
319
335
319
304
318
335
327
295
319
344
335
312
300
319
335
280
319
639
295
295
316
291
284
312
327
319
305
319
348
327
304
295
319
318
302
327
327
304
295
319
335
312
295
319
335
316
300
316
344
327
318
304
319
319
295
304
327
287
312
639
280
302
295
335
327
304
305
327
335
305
304
335
339
319
304
319
352
339
305
304
327
339
319
255
423
440
286
316
300
286
304
327
319
300
312
344
353
334
318
319
335
316
287
295
319
327
304
295
319
334
312
300
319
335
316
304
316
334
319
305
319
344
319
304
304
334
327
255
355
543
316
280
284
313
319
287
287
352
348
316
312
327
319
295
291
319
327
304
300
319
334
312
304
319
327
305
287
304
327
327
295
304
344
335
319
295
305
335
304
255
531
295
312
284
284
312
319
304
291
327
344
319
316
327
344
319
295
295
327
319
319
335
327
304
287
284
433
472
316
295
316
295
280
295
319
316
287
312
335
344
319
304
312
327
312
284
287
319
319
295
300
327
334
295
295
327
335
305
300
319
335
316
295
319
348
345
295
304
335
284
307
524
319
287
312
319
295
287
319
335
327
312
335
359
344
312
295
316
319
287
287
312
327
318
295
312
327
319
295
304
335
332
300
304
327
344
319
304
316
335
319
295
312
287
355
568
287
313
318
287
287
312
327
316
305
327
352
335
312
316
334
312
287
304
327
335
304
304
327
335
312
302
319
335
316
304
318
344
312
295
327
344
319
312
319
335
312
287
295
319
316
287
295
327
335
304
295
319
335
312
295
318
319
304
319
335
318
295
312
335
295
255
591
280
287
318
295
271
284
316
327
312
304
327
344
319
295
287
316
319
300
295
319
335
305
295
319
335
319
304
319
335
319
304
316
352
352
312
304
327
344
319
286
280
448
455
312
287
307
319
307
287
305
334
335
313
327
355
359
318
295
312
319
312
287
312
327
319
295
295
327
327
304
295
327
335
312
304
319
352
327
300
304
335
335
304
255
384
536
312
295
318
312
286
339
352
316
319
344
319
312
319
344
327
300
295
327
319
255
512
287
304
271
280
307
319
295
287
319
344
335
316
312
335
327
287
287
316
327
312
287
305
327
335
304
295
327
335
312
295
319
335
316
295
319
345
327
304
295
327
339
287
284
527
319
280
304
319
304
287
304
327
334
319
352
384
384
348
319
334
352
345
316
319
352
352
319
318
344
352
319
312
335
348
327
305
319
348
344
319
316
344
334
304
304
316
529
305
295
280
295
319
312
287
304
339
352
319
313
327
335
287
280
291
319
307
281
295
319
319
287
291
319
319
286
313
319
304
287
319
344
335
316
319
352
348
305
295
319
327
312
291
312
335
319
295
312
334
319
304
300
335
332
295
300
327
335
316
304
319
335
307
295
316
304
295
515
319
271
284
312
316
287
284
319
335
319
304
319
352
334
295
287
312
319
304
291
319
335
312
295
316
335
319
295
307
334
327
295
344
344
316
295
305
335
327
255
368
542
319
271
284
312
313
287
286
312
335
335
312
319
352
327
287
287
316
327
312
291
312
332
319
295
304
334
327
291
295
334
335
305
312
339
335
312
295
319
335
287
287
504
432
295
304
335
335
312
305
335
335
304
304
335
335
312
304
335
352
319
304
312
327
327
280
248
551
305
280
275
304
319
295
286
312
334
327
312
319
344
327
291
287
312
319
304
287
316
327
319
295
305
334
305
295
319
337
319
312
327
339
327
304
304
335
327
270
448
415
295
305
280
280
312
319
295
295
327
344
327
316
335
345
319
295
287
319
327
312
295
312
339
327
304
304
332
335
312
304
319
335
316
304
327
352
335
304
304
335
344
312
255
399
497
312
304
316
295
284
304
327
319
304
316
344
352
316
304
312
327
304
305
344
335
312
304
327
295
384
624
287
287
319
312
286
287
327
335
316
312
344
352
316
295
304
312
295
312
335
319
295
304
335
327
304
295
335
335
304
295
327
339
312
295
312
327
319
295
295
327
327
255
408
480
312
304
312
287
280
312
332
316
295
316
344
348
312
312
334
327
291
291
319
332
312
304
319
344
319
305
312
344
327
312
307
335
335
305
319
348
335
318
319
352
344
307
304
327
344
286
399
560
319
295
284
312
327
316
302
312
348
352
319
319
352
344
312
287
300
319
319
295
305
332
327
295
304
335
312
280
319
312
286
304
327
344
319
312
334
344
316
291
295
319
316
287
304
327
327
304
295
319
334
305
295
319
335
316
295
312
344
344
304
295
327
335
312
280
255
556
307
271
284
312
318
287
287
319
335
319
305
327
344
319
287
287
319
319
295
295
327
327
304
295
319
335
305
295
316
335
318
295
316
348
335
304
295
335
339
319
255
387
504
312
304
319
312
291
316
335
319
312
335
359
352
319
312
335
327
295
319
339
319
304
304
335
334
304
304
327
339
316
312
327
344
319
287
287
327
318
280
408
515
312
287
312
316
312
334
327
304
304
335
344
316
312
327
344
318
304
312
335
304
287
527
319
280
287
319
316
287
287
327
335
316
312
335
344
316
287
304
319
318
291
304
334
327
295
300
335
327
304
295
319
334
305
295
319
344
327
295
304
335
327
304
255
312
639
316
316
295
281
304
319
312
295
319
344
335
312
312
327
287
287
319
334
318
295
312
335
319
295
304
335
327
295
304
334
344
316
291
305
327
319
295
280
295
504
327
287
284
295
327
318
291
300
335
344
319
319
344
355
327
295
295
319
327
304
295
319
335
318
304
319
337
483
304
312
319
295
295
327
335
319
312
344
344
304
287
295
319
316
287
295
319
319
295
304
327
319
295
287
318
327
312
295
319
332
318
295
295
335
318
254
428
415
284
304
280
280
312
316
287
287
337
335
305
295
319
319
287
287
318
327
312
295
312
335
319
295
312
319
316
287
304
327
327
313
305
327
319
304
300
327
295
304
560
316
287
280
305
319
304
287
312
335
335
312
319
348
327
304
291
319
327
304
295
327
344
319
312
316
344
335
312
312
339
344
312
312
344
359
327
312
319
345
339
305
280
412
537
287
304
295
334
319
287
295
319
327
295
287
316
334
327
295
304
327
327
291
295
287
327
568
280
312
312
287
312
335
319
304
316
335
327
295
287
316
319
304
291
319
332
305
287
304
319
318
287
304
327
327
304
295
334
344
318
295
305
335
327
255
305
632
287
287
319
318
287
287
319
335
319
304
319
344
319
295
287
313
327
312
291
312
334
319
295
304
335
327
295
304
327
335
312
304
335
352
318
295
312
334
327
271
255
543
316
280
280
316
312
287
287
319
335
316
304
327
345
327
295
295
319
319
295
304
335
334
305
344
344
359
316
327
316
287
295
335
345
327
319
335
355
335
312
291
318
319
304
295
327
335
312
295
319
334
312
291
313
334
318
291
318
344
327
304
295
319
335
280
287
496
319
312
304
280
287
319
319
287
295
327
344
327
312
319
344
319
304
295
327
335
312
305
339
344
312
304
319
344
327
304
305
335
339
319
312
327
344
319
304
312
295
304
560
304
307
281
284
319
319
295
295
335
344
319
312
327
344
316
295
319
319
295
304
335
327
304
295
327
335
312
295
327
335
327
307
319
327
304
287
312
287
319
625
281
280
287
312
335
312
339
339
312
304
319
344
335
305
312
337
334
304
295
287
384
572
286
312
319
295
287
319
344
335
316
319
359
359
319
305
318
335
316
304
319
344
335
312
312
348
344
319
312
344
352
327
319
352
359
344
316
319
352
352
284
368
591
335
305
291
316
327
319
295
319
352
352
319
319
348
344
312
295
339
334
307
304
327
335
312
295
319
335
318
295
312
344
344
295
287
305
319
312
255
263
611
304
312
287
280
287
316
312
287
295
327
335
312
291
313
319
287
281
312
327
316
287
295
319
327
304
287
312
327
319
291
286
316
295
287
319
344
335
312
312
335
319
295
295
327
327
304
304
334
335
312
304
319
335
316
295
319
335
319
304
312
344
344
305
295
319
332
316
255
304
510
295
295
316
287
280
305
319
312
295
352
344
304
291
316
319
295
287
316
327
313
291
304
327
319
295
295
319
312
287
295
319
319
300
312
327
319
304
295
327
319
255
440
415
313
316
284
280
312
319
304
287
319
344
339
312
316
335
334
295
291
319
327
304
295
327
339
319
304
312
335
335
304
304
335
337
316
304
316
345
345
300
302
327
335
312
271
255
527
312
335
316
295
316
334
319
295
312
334
319
304
304
334
335
295
304
339
344
312
295
304
334
287
399
284
291
271
287
319
319
291
304
335
348
319
318
344
352
318
286
286
319
319
295
295
327
334
304
287
319
335
319
295
312
335
327
304
312
352
344
316
295
319
339
319
255
423
448
295
319
287
280
304
319
305
287
312
335
344
319
312
334
335
304
287
316
334
319
300
312
335
335
300
304
335
335
304
295
327
344
327
316
319
344
327
304
304
327
287
440
480
316
304
316
295
284
304
327
319
304
312
344
353
327
312
335
319
304
327
287
472
384
302
291
316
287
280
300
319
312
287
312
335
335
312
304
319
319
287
287
319
327
312
295
312
335
316
295
312
335
319
300
304
344
352
305
295
316
334
319
287
255
408
496
275
312
295
284
304
319
318
295
319
344
344
319
319
339
327
304
287
304
327
319
295
304
335
335
304
291
319
327
312
304
334
344
319
287
295
319
334
280
335
423
384
280
281
304
319
295
286
319
335
335
312
335
368
300
287
295
319
327
295
295
312
335
305
295
319
335
327
305
327
334
287
287
287
319
300
252
415
399
255
287
271
316
344
319
304
316
344
355
319
304
305
334
319
305
284
287
492
359
280
275
304
319
295
284
305
327
327
304
312
344
344
312
295
312
334
316
295
312
335
327
300
312
335
335
304
304
335
348
327
295
312
335
319
295
304
287
335
639
280
271
295
319
313
287
295
327
344
319
312
319
335
305
284
295
319
319
304
327
335
304
295
327
335
316
304
319
344
327
312
319
344
334
305
295
319
327
255
455
384
312
312
295
280
287
319
313
287
304
334
345
319
312
319
335
305
287
295
319
319
295
307
327
327
304
304
335
335
304
304
319
608
286
295
316
304
284
295
327
327
305
312
348
335
304
295
316
327
304
287
312
327
334
304
300
335
339
318
300
316
335
327
304
312
335
335
305
312
344
335
316
318
352
344
312
304
319
344
300
483
319
304
319
304
284
304
327
327
305
319
348
344
312
304
319
319
287
284
312
319
304
287
313
327
319
295
302
327
319
300
295
327
335
304
295
327
344
327
304
312
335
327
304
300
287
359
639
287
284
295
319
304
287
304
335
335
312
312
344
335
304
287
312
327
319
295
304
335
335
304
304
327
344
316
304
313
335
319
284
316
319
295
287
319
335
327
307
327
352
335
312
316
344
327
304
305
327
344
319
312
327
352
304
312
327
348
319
312
319
352
327
319
319
352
334
313
316
345
287
387
639
287
284
304
319
304
287
307
335
335
312
319
352
344
312
312
335
327
304
312
327
352
319
312
327
344
319
305
319
348
327
312
316
352
345
319
312
337
344
316
312
334
287
449
575
295
316
287
280
287
316
304
280
295
319
327
312
312
335
335
300
304
344
335
319
295
316
335
319
295
305
335
319
305
304
327
327
304
312
319
327
295
287
312
608
512
316
304
319
319
295
304
327
319
300
295
327
327
312
312
327
319
295
287
319
287
224
639
312
287
271
270
304
307
286
275
305
319
316
304
319
327
312
287
304
319
319
295
304
334
327
304
304
327
335
307
304
319
348
327
295
295
334
327
300
240
305
639
304
304
304
271
284
305
316
287
287
316
335
319
304
307
319
318
287
305
327
327
295
304
319
335
304
295
319
335
312
295
319
335
319
287
300
319
327
240
280
280
312
304
284
280
304
316
287
286
318
335
327
312
327
335
316
284
295
327
319
304
295
319
319
304
295
327
312
271
286
312
316
286
284
318
335
319
304
319
335
319
304
316
339
344
312
305
335
344
316
304
319
345
337
318
312
335
327
304
305
327
270
460
487
305
271
284
312
305
280
280
312
319
291
287
319
335
319
295
304
327
319
295
304
327
327
304
295
327
327
304
295
319
335
319
304
319
327
319
295
312
286
483
304
271
280
305
312
287
280
312
319
304
295
319
335
312
287
300
319
316
287
304
327
332
304
295
319
327
312
295
319
335
327
304
316
327
319
304
304
280
304
639
284
271
287
316
307
280
287
319
319
295
305
339
327
319
295
312
334
280
345
632
284
280
312
318
287
286
316
327
316
304
319
348
334
305
295
319
327
312
295
319
335
319
304
319
335
319
304
318
344
352
319
312
332
335
312
312
291
271
639
295
280
307
319
300
287
312
332
319
304
307
327
327
295
304
327
335
312
304
319
327
304
287
304
327
319
312
316
335
319
295
304
327
319
231
513
255
295
304
280
271
295
313
304
284
295
319
319
295
307
332
319
295
295
327
334
304
304
327
335
312
304
319
334
318
295
319
352
327
295
300
327
335
280
231
639
284
280
287
313
295
304
344
327
304
295
335
352
318
295
304
335
327
271
255
515
319
271
287
312
312
284
284
316
319
305
327
335
304
287
316
335
319
295
312
335
335
304
304
335
335
312
295
319
335
319
291
316
327
312
291
286
255
551
270
271
304
312
287
280
295
319
305
287
312
327
332
304
295
327
319
305
300
327
339
319
304
312
335
335
304
312
335
344
316
312
335
339
319
302
312
335
287
271
639
284
275
287
312
295
280
295
319
318
291
312
335
319
295
295
327
319
295
295
327
335
304
295
319
335
312
295
319
335
319
304
316
335
295
